6997.76196,-0.00226
6995.83367,-0.00214
6993.90538,-0.00179
6991.97709,-0.00158
6990.04880,-0.00221
6988.12051,-0.00281
6986.19222,-0.00223
6984.26393,-0.00140
6982.33565,-0.00161
6980.40736,-0.00246
6978.47907,-0.00259
6976.55078,-0.00138
6974.62249,-0.00007
6972.69420,-0.00017
6970.76591,-0.00103
6968.83762,-0.00118
6966.90933,-0.00052
6964.98104,0.00031
6963.05275,0.00088
6961.12446,0.00077
6959.19617,0.00004
6957.26788,-0.00056
6955.33959,-0.00082
6953.41131,-0.00124
6951.48302,-0.00187
6949.55473,-0.00180
6947.62644,-0.00092
6945.69815,-0.00022
6943.76986,-0.00018
6941.84157,-0.00068
6939.91328,-0.00148
6937.98499,-0.00179
6936.05670,-0.00108
6934.12841,0.00015
6932.20012,0.00123
6930.27183,0.00176
6928.34354,0.00156
6926.41526,0.00131
6924.48697,0.00134
6922.55868,0.00092
6920.63039,0.00024
6918.70210,0.00035
6916.77381,0.00109
6914.84552,0.00143
6912.91723,0.00121
6910.98894,0.00100
6909.06065,0.00068
6907.13236,0.00014
6905.20407,0.00000
6903.27578,0.00062
6901.34749,0.00112
6899.41920,0.00058
6897.49092,0.00000
6895.56263,0.00081
6893.63434,0.00222
6891.70605,0.00253
6889.77776,0.00205
6887.84947,0.00200
6885.92118,0.00223
6883.99289,0.00205
6882.06460,0.00154
6880.13631,0.00105
6878.20802,0.00076
6876.27973,0.00067
6874.35144,0.00064
6872.42315,0.00069
6870.49486,0.00097
6868.56658,0.00132
6866.63829,0.00177
6864.71000,0.00218
6862.78171,0.00223
6860.85342,0.00233
6858.92513,0.00248
6856.99684,0.00238
6855.06855,0.00230
6853.14026,0.00232
6851.21197,0.00238
6849.28368,0.00239
6847.35539,0.00230
6845.42710,0.00219
6843.49881,0.00197
6841.57052,0.00190
6839.64224,0.00197
6837.71395,0.00156
6835.78566,0.00057
6833.85737,0.00000
6831.92908,0.00060
6830.00079,0.00187
6828.07250,0.00271
6826.14421,0.00283
6824.21592,0.00242
6822.28763,0.00194
6820.35934,0.00194
6818.43105,0.00249
6816.50276,0.00317
6814.57447,0.00399
6812.64618,0.00444
6810.71790,0.00393
6808.78961,0.00340
6806.86132,0.00370
6804.93303,0.00376
6803.00474,0.00334
6801.07645,0.00345
6799.14816,0.00390
6797.21987,0.00382
6795.29158,0.00353
6793.36329,0.00361
6791.43500,0.00335
6789.50671,0.00217
6787.57842,0.00146
6785.65013,0.00203
6783.72185,0.00274
6781.79356,0.00334
6779.86527,0.00443
6777.93698,0.00493
6776.00869,0.00396
6774.08040,0.00266
6772.15211,0.00216
6770.22382,0.00290
6768.29553,0.00385
6766.36724,0.00376
6764.43895,0.00330
6762.51066,0.00326
6760.58237,0.00313
6758.65408,0.00286
6756.72579,0.00288
6754.79751,0.00297
6752.86922,0.00285
6750.94093,0.00280
6749.01264,0.00309
6747.08435,0.00347
6745.15606,0.00356
6743.22777,0.00351
6741.29948,0.00355
6739.37119,0.00346
6737.44290,0.00309
6735.51461,0.00257
6733.58632,0.00235
6731.65803,0.00266
6729.72974,0.00309
6727.80145,0.00293
6725.87317,0.00222
6723.94488,0.00204
6722.01659,0.00268
6720.08830,0.00291
6718.16001,0.00246
6716.23172,0.00233
6714.30343,0.00234
6712.37514,0.00167
6710.44685,0.00122
6708.51856,0.00172
6706.59027,0.00232
6704.66198,0.00231
6702.73369,0.00225
6700.80540,0.00274
6698.87711,0.00339
6696.94883,0.00338
6695.02054,0.00269
6693.09225,0.00243
6691.16396,0.00282
6689.23567,0.00286
6687.30738,0.00268
6685.37909,0.00280
6683.45080,0.00272
6681.52251,0.00260
6679.59422,0.00274
6677.66593,0.00245
6675.73764,0.00169
6673.80935,0.00143
6671.88106,0.00188
6669.95277,0.00243
6668.02449,0.00257
6666.09620,0.00232
6664.16791,0.00213
6662.23962,0.00232
6660.31133,0.00259
6658.38304,0.00271
6656.45475,0.00287
6654.52646,0.00314
6652.59817,0.00301
6650.66988,0.00211
6648.74159,0.00163
6646.81330,0.00222
6644.88501,0.00292
6642.95672,0.00327
6641.02844,0.00314
6639.10015,0.00237
6637.17186,0.00189
6635.24357,0.00213
6633.31528,0.00228
6631.38699,0.00216
6629.45870,0.00247
6627.53041,0.00307
6625.60212,0.00323
6623.67383,0.00278
6621.74554,0.00224
6619.81725,0.00193
6617.88896,0.00213
6615.96067,0.00293
6614.03238,0.00334
6612.10410,0.00281
6610.17581,0.00231
6608.24752,0.00245
6606.31923,0.00286
6604.39094,0.00328
6602.46265,0.00337
6600.53436,0.00311
6598.60607,0.00300
6596.67778,0.00305
6594.74949,0.00278
6592.82120,0.00241
6590.89291,0.00247
6588.96462,0.00279
6587.03633,0.00284
6585.10804,0.00266
6583.17976,0.00244
6581.25147,0.00250
6579.32318,0.00302
6577.39489,0.00375
6575.46660,0.00409
6573.53831,0.00357
6571.61002,0.00257
6569.68173,0.00240
6567.75344,0.00325
6565.82515,0.00368
6563.89686,0.00321
6561.96857,0.00281
6560.04028,0.00272
6558.11199,0.00250
6556.18370,0.00262
6554.25542,0.00315
6552.32713,0.00329
6550.39884,0.00321
6548.47055,0.00370
6546.54226,0.00428
6544.61397,0.00417
6542.68568,0.00360
6540.75739,0.00349
6538.82910,0.00409
6536.90081,0.00450
6534.97252,0.00395
6533.04423,0.00294
6531.11594,0.00231
6529.18765,0.00239
6527.25936,0.00272
6525.33108,0.00282
6523.40279,0.00279
6521.47450,0.00289
6519.54621,0.00315
6517.61792,0.00331
6515.68963,0.00324
6513.76134,0.00305
6511.83305,0.00279
6509.90476,0.00247
6507.97647,0.00223
6506.04818,0.00208
6504.11989,0.00231
6502.19160,0.00283
6500.26331,0.00310
6498.33503,0.00320
6496.40674,0.00329
6494.47845,0.00300
6492.55016,0.00259
6490.62187,0.00240
6488.69358,0.00208
6486.76529,0.00158
6484.83700,0.00144
6482.90871,0.00186
6480.98042,0.00239
6479.05213,0.00272
6477.12384,0.00284
6475.19555,0.00281
6473.26726,0.00275
6471.33897,0.00266
6469.41069,0.00252
6467.48240,0.00268
6465.55411,0.00301
6463.62582,0.00297
6461.69753,0.00274
6459.76924,0.00286
6457.84095,0.00303
6455.91266,0.00286
6453.98437,0.00268
6452.05608,0.00259
6450.12779,0.00225
6448.19950,0.00201
6446.27121,0.00216
6444.34292,0.00233
6442.41463,0.00238
6440.48635,0.00271
6438.55806,0.00315
6436.62977,0.00332
6434.70148,0.00333
6432.77319,0.00286
6430.84490,0.00197
6428.91661,0.00167
6426.98832,0.00225
6425.06003,0.00290
6423.13174,0.00302
6421.20345,0.00263
6419.27516,0.00213
6417.34687,0.00171
6415.41858,0.00148
6413.49029,0.00153
6411.56201,0.00172
6409.63372,0.00196
6407.70543,0.00222
6405.77714,0.00229
6403.84885,0.00245
6401.92056,0.00269
6399.99227,0.00270
6398.06398,0.00256
6396.13569,0.00244
6394.20740,0.00234
6392.27911,0.00217
6390.35082,0.00214
6388.42253,0.00243
6386.49424,0.00263
6384.56595,0.00251
6382.63767,0.00243
6380.70938,0.00259
6378.78109,0.00252
6376.85280,0.00170
6374.92451,0.00105
6372.99622,0.00134
6371.06793,0.00198
6369.13964,0.00242
6367.21135,0.00274
6365.28306,0.00291
6363.35477,0.00307
6361.42648,0.00323
6359.49819,0.00312
6357.56990,0.00266
6355.64162,0.00229
6353.71333,0.00213
6351.78504,0.00209
6349.85675,0.00246
6347.92846,0.00314
6346.00017,0.00339
6344.07188,0.00285
6342.14359,0.00210
6340.21530,0.00184
6338.28701,0.00221
6336.35872,0.00266
6334.43043,0.00288
6332.50214,0.00280
6330.57385,0.00241
6328.64556,0.00209
6326.71728,0.00222
6324.78899,0.00227
6322.86070,0.00206
6320.93241,0.00226
6319.00412,0.00286
6317.07583,0.00302
6315.14754,0.00280
6313.21925,0.00281
6311.29096,0.00303
6309.36267,0.00316
6307.43438,0.00325
6305.50609,0.00313
6303.57780,0.00273
6301.64951,0.00233
6299.72122,0.00198
6297.79294,0.00184
6295.86465,0.00198
6293.93636,0.00206
6292.00807,0.00195
6290.07978,0.00206
6288.15149,0.00218
6286.22320,0.00188
6284.29491,0.00147
6282.36662,0.00152
6280.43833,0.00156
6278.51004,0.00124
6276.58175,0.00109
6274.65346,0.00138
6272.72517,0.00182
6270.79688,0.00228
6268.86860,0.00238
6266.94031,0.00203
6265.01202,0.00187
6263.08373,0.00210
6261.15544,0.00212
6259.22715,0.00183
6257.29886,0.00173
6255.37057,0.00181
6253.44228,0.00174
6251.51399,0.00156
6249.58570,0.00181
6247.65741,0.00247
6245.72912,0.00293
6243.80083,0.00282
6241.87254,0.00220
6239.94426,0.00150
6238.01597,0.00151
6236.08768,0.00190
6234.15939,0.00191
6232.23110,0.00180
6230.30281,0.00181
6228.37452,0.00178
6226.44623,0.00184
6224.51794,0.00177
6222.58965,0.00164
6220.66136,0.00174
6218.73307,0.00190
6216.80478,0.00219
6214.87649,0.00269
6212.94821,0.00294
6211.01992,0.00267
6209.09163,0.00231
6207.16334,0.00202
6205.23505,0.00180
6203.30676,0.00165
6201.37847,0.00173
6199.45018,0.00230
6197.52189,0.00307
6195.59360,0.00331
6193.66531,0.00300
6191.73702,0.00257
6189.80873,0.00214
6187.88044,0.00166
6185.95215,0.00136
6184.02387,0.00145
6182.09558,0.00172
6180.16729,0.00162
6178.23900,0.00130
6176.31071,0.00126
6174.38242,0.00140
6172.45413,0.00150
6170.52584,0.00149
6168.59755,0.00158
6166.66926,0.00170
6164.74097,0.00167
6162.81268,0.00158
6160.88439,0.00157
6158.95610,0.00175
6157.02781,0.00221
6155.09953,0.00261
6153.17124,0.00269
6151.24295,0.00236
6149.31466,0.00189
6147.38637,0.00180
6145.45808,0.00213
6143.52979,0.00237
6141.60150,0.00235
6139.67321,0.00193
6137.74492,0.00141
6135.81663,0.00144
6133.88834,0.00186
6131.96005,0.00208
6130.03176,0.00221
6128.10347,0.00253
6126.17519,0.00262
6124.24690,0.00246
6122.31861,0.00224
6120.39032,0.00176
6118.46203,0.00130
6116.53374,0.00137
6114.60545,0.00167
6112.67716,0.00185
6110.74887,0.00181
6108.82058,0.00163
6106.89229,0.00150
6104.96400,0.00152
6103.03571,0.00152
6101.10742,0.00149
6099.17913,0.00144
6097.25085,0.00119
6095.32256,0.00080
6093.39427,0.00074
6091.46598,0.00104
6089.53769,0.00135
6087.60940,0.00162
6085.68111,0.00188
6083.75282,0.00188
6081.82453,0.00154
6079.89624,0.00146
6077.96795,0.00190
6076.03966,0.00233
6074.11137,0.00243
6072.18308,0.00250
6070.25480,0.00241
6068.32651,0.00194
6066.39822,0.00163
6064.46993,0.00196
6062.54164,0.00213
6060.61335,0.00154
6058.68506,0.00111
6056.75677,0.00128
6054.82848,0.00133
6052.90019,0.00103
6050.97190,0.00071
6049.04361,0.00055
6047.11532,0.00068
6045.18703,0.00108
6043.25874,0.00145
6041.33046,0.00163
6039.40217,0.00170
6037.47388,0.00171
6035.54559,0.00156
6033.61730,0.00124
6031.68901,0.00114
6029.76072,0.00127
6027.83243,0.00150
6025.90414,0.00177
6023.97585,0.00192
6022.04756,0.00167
6020.11927,0.00130
6018.19098,0.00134
6016.26269,0.00151
6014.33440,0.00114
6012.40612,0.00066
6010.47783,0.00084
6008.54954,0.00137
6006.62125,0.00156
6004.69296,0.00121
6002.76467,0.00066
6000.83638,0.00050
5998.90809,0.00083
5996.97980,0.00114
5995.05151,0.00126
5993.12322,0.00120
5991.19493,0.00128
5989.26664,0.00158
5987.33835,0.00169
5985.41006,0.00128
5983.48178,0.00079
5981.55349,0.00085
5979.62520,0.00137
5977.69691,0.00191
5975.76862,0.00218
5973.84033,0.00222
5971.91204,0.00227
5969.98375,0.00208
5968.05546,0.00160
5966.12717,0.00119
5964.19888,0.00096
5962.27059,0.00091
5960.34230,0.00123
5958.41401,0.00170
5956.48572,0.00185
5954.55744,0.00157
5952.62915,0.00116
5950.70086,0.00113
5948.77257,0.00134
5946.84428,0.00130
5944.91599,0.00119
5942.98770,0.00142
5941.05941,0.00161
5939.13112,0.00137
5937.20283,0.00101
5935.27454,0.00098
5933.34625,0.00115
5931.41796,0.00139
5929.48967,0.00160
5927.56139,0.00163
5925.63310,0.00136
5923.70481,0.00102
5921.77652,0.00098
5919.84823,0.00126
5917.91994,0.00138
5915.99165,0.00126
5914.06336,0.00120
5912.13507,0.00121
5910.20678,0.00132
5908.27849,0.00156
5906.35020,0.00150
5904.42191,0.00090
5902.49362,0.00046
5900.56533,0.00083
5898.63705,0.00151
5896.70876,0.00168
5894.78047,0.00154
5892.85218,0.00143
5890.92389,0.00141
5888.99560,0.00155
5887.06731,0.00168
5885.13902,0.00146
5883.21073,0.00116
5881.28244,0.00112
5879.35415,0.00141
5877.42586,0.00163
5875.49757,0.00142
5873.56928,0.00089
5871.64099,0.00056
5869.71271,0.00059
5867.78442,0.00066
5865.85613,0.00075
5863.92784,0.00098
5861.99955,0.00108
5860.07126,0.00110
5858.14297,0.00134
5856.21468,0.00139
5854.28639,0.00123
5852.35810,0.00135
5850.42981,0.00154
5848.50152,0.00132
5846.57323,0.00106
5844.64494,0.00110
5842.71665,0.00119
5840.78837,0.00111
5838.86008,0.00116
5836.93179,0.00132
5835.00350,0.00134
5833.07521,0.00120
5831.14692,0.00102
5829.21863,0.00087
5827.29034,0.00095
5825.36205,0.00120
5823.43376,0.00133
5821.50547,0.00121
5819.57718,0.00100
5817.64889,0.00097
5815.72060,0.00107
5813.79231,0.00120
5811.86403,0.00122
5809.93574,0.00116
5808.00745,0.00120
5806.07916,0.00135
5804.15087,0.00142
5802.22258,0.00147
5800.29429,0.00152
5798.36600,0.00148
5796.43771,0.00123
5794.50942,0.00097
5792.58113,0.00085
5790.65284,0.00088
5788.72455,0.00105
5786.79626,0.00133
5784.86798,0.00154
5782.93969,0.00142
5781.01140,0.00120
5779.08311,0.00117
5777.15482,0.00121
5775.22653,0.00113
5773.29824,0.00097
5771.36995,0.00088
5769.44166,0.00069
5767.51337,0.00043
5765.58508,0.00047
5763.65679,0.00071
5761.72850,0.00095
5759.80021,0.00122
5757.87192,0.00151
5755.94364,0.00164
5754.01535,0.00152
5752.08706,0.00128
5750.15877,0.00107
5748.23048,0.00076
5746.30219,0.00052
5744.37390,0.00058
5742.44561,0.00071
5740.51732,0.00076
5738.58903,0.00089
5736.66074,0.00112
5734.73245,0.00131
5732.80416,0.00129
5730.87587,0.00112
5728.94758,0.00122
5727.01930,0.00149
5725.09101,0.00151
5723.16272,0.00121
5721.23443,0.00097
5719.30614,0.00097
5717.37785,0.00104
5715.44956,0.00088
5713.52127,0.00071
5711.59298,0.00075
5709.66469,0.00070
5707.73640,0.00044
5705.80811,0.00042
5703.87982,0.00055
5701.95153,0.00034
5700.02324,0.00000
5698.09496,0.00029
5696.16667,0.00092
5694.23838,0.00115
5692.31009,0.00091
5690.38180,0.00064
5688.45351,0.00072
5686.52522,0.00095
5684.59693,0.00092
5682.66864,0.00065
5680.74035,0.00047
5678.81206,0.00056
5676.88377,0.00072
5674.95548,0.00074
5673.02719,0.00070
5671.09890,0.00073
5669.17062,0.00086
5667.24233,0.00098
5665.31404,0.00095
5663.38575,0.00083
5661.45746,0.00079
5659.52917,0.00077
5657.60088,0.00067
5655.67259,0.00069
5653.74430,0.00097
5651.81601,0.00116
5649.88772,0.00112
5647.95943,0.00108
5646.03114,0.00106
5644.10285,0.00108
5642.17457,0.00114
5640.24628,0.00110
5638.31799,0.00085
5636.38970,0.00061
5634.46141,0.00065
5632.53312,0.00088
5630.60483,0.00094
5628.67654,0.00089
5626.74825,0.00100
5624.81996,0.00116
5622.89167,0.00101
5620.96338,0.00060
5619.03509,0.00043
5617.10680,0.00064
5615.17851,0.00090
5613.25023,0.00115
5611.32194,0.00129
5609.39365,0.00106
5607.46536,0.00064
5605.53707,0.00026
5603.60878,0.00000
5601.68049,0.00010
5599.75220,0.00051
5597.82391,0.00079
5595.89562,0.00081
5593.96733,0.00083
5592.03904,0.00097
5590.11075,0.00104
5588.18246,0.00094
5586.25417,0.00079
5584.32589,0.00068
5582.39760,0.00061
5580.46931,0.00067
5578.54102,0.00082
5576.61273,0.00098
5574.68444,0.00104
5572.75615,0.00082
5570.82786,0.00057
5568.89957,0.00063
5566.97128,0.00077
5565.04299,0.00073
5563.11470,0.00060
5561.18641,0.00049
5559.25812,0.00039
5557.32983,0.00035
5555.40155,0.00047
5553.47326,0.00071
5551.54497,0.00077
5549.61668,0.00065
5547.68839,0.00071
5545.76010,0.00084
5543.83181,0.00080
5541.90352,0.00055
5539.97523,0.00025
5538.04694,0.00018
5536.11865,0.00027
5534.19036,0.00041
5532.26207,0.00059
5530.33378,0.00069
5528.40549,0.00066
5526.47721,0.00059
5524.54892,0.00042
5522.62063,0.00018
5520.69234,0.00021
5518.76405,0.00047
5516.83576,0.00067
5514.90747,0.00086
5512.97918,0.00091
5511.05089,0.00061
5509.12260,0.00024
5507.19431,0.00007
5505.26602,0.00000
5503.33773,0.00014
5501.40944,0.00052
5499.48116,0.00076
5497.55287,0.00072
5495.62458,0.00073
5493.69629,0.00082
5491.76800,0.00079
5489.83971,0.00056
5487.91142,0.00034
5485.98313,0.00028
5484.05484,0.00039
5482.12655,0.00056
5480.19826,0.00076
5478.26997,0.00085
5476.34168,0.00080
5474.41339,0.00068
5472.48510,0.00054
5470.55682,0.00032
5468.62853,0.00012
5466.70024,0.00016
5464.77195,0.00045
5462.84366,0.00064
5460.91537,0.00053
5458.98708,0.00030
5457.05879,0.00024
5455.13050,0.00036
5453.20221,0.00037
5451.27392,0.00018
5449.34563,-0.00004
5447.41734,-0.00004
5445.48905,-0.00011
5443.56076,-0.00030
5441.63248,-0.00027
5439.70419,0.00002
5437.77590,0.00035
5435.84761,0.00065
5433.91932,0.00075
5431.99103,0.00060
5430.06274,0.00048
5428.13445,0.00063
5426.20616,0.00086
5424.27787,0.00092
5422.34958,0.00064
5420.42129,0.00016
5418.49300,-0.00015
5416.56471,-0.00014
5414.63642,0.00020
5412.70814,0.00073
5410.77985,0.00105
5408.85156,0.00084
5406.92327,0.00051
5404.99498,0.00029
5403.06669,0.00012
5401.13840,0.00012
5399.21011,0.00032
5397.28182,0.00056
5395.35353,0.00084
5393.42524,0.00104
5391.49695,0.00098
5389.56866,0.00086
5387.64037,0.00082
5385.71209,0.00064
5383.78380,0.00040
5381.85551,0.00049
5379.92722,0.00081
5377.99893,0.00091
5376.07064,0.00050
5374.14235,0.00007
5372.21406,0.00012
5370.28577,0.00040
5368.35748,0.00061
5366.42919,0.00082
5364.50090,0.00085
5362.57261,0.00057
5360.64432,0.00024
5358.71603,0.00010
5356.78775,0.00000
5354.85946,-0.00002
5352.93117,0.00019
5351.00288,0.00042
5349.07459,0.00045
5347.14630,0.00053
5345.21801,0.00072
5343.28972,0.00082
5341.36143,0.00079
5339.43314,0.00076
5337.50485,0.00076
5335.57656,0.00068
5333.64827,0.00055
5331.71998,0.00034
5329.79169,0.00012
5327.86341,0.00013
5325.93512,0.00046
5324.00683,0.00079
5322.07854,0.00090
5320.15025,0.00086
5318.22196,0.00081
5316.29367,0.00067
5314.36538,0.00056
5312.43709,0.00062
5310.50880,0.00074
5308.58051,0.00068
5306.65222,0.00038
5304.72393,0.00003
5302.79564,0.00000
5300.86735,0.00028
5298.93907,0.00062
5297.01078,0.00073
5295.08249,0.00072
5293.15420,0.00077
5291.22591,0.00076
5289.29762,0.00058
5287.36933,0.00044
5285.44104,0.00048
5283.51275,0.00063
5281.58446,0.00069
5279.65617,0.00061
5277.72788,0.00049
5275.79959,0.00035
5273.87130,0.00028
5271.94301,0.00032
5270.01473,0.00040
5268.08644,0.00038
5266.15815,0.00019
5264.22986,0.00006
5262.30157,0.00012
5260.37328,0.00015
5258.44499,0.00014
5256.51670,0.00020
5254.58841,0.00029
5252.66012,0.00035
5250.73183,0.00039
5248.80354,0.00033
5246.87525,0.00021
5244.94696,0.00018
5243.01868,0.00026
5241.09039,0.00041
5239.16210,0.00051
5237.23381,0.00059
5235.30552,0.00069
5233.37723,0.00067
5231.44894,0.00060
5229.52065,0.00076
5227.59236,0.00088
5225.66407,0.00060
5223.73578,0.00021
5221.80749,0.00014
5219.87920,0.00023
5217.95091,0.00027
5216.02262,0.00028
5214.09434,0.00031
5212.16605,0.00045
5210.23776,0.00064
5208.30947,0.00061
5206.38118,0.00037
5204.45289,0.00037
5202.52460,0.00054
5200.59631,0.00051
5198.66802,0.00036
5196.73973,0.00030
5194.81144,0.00031
5192.88315,0.00033
5190.95486,0.00036
5189.02657,0.00021
5187.09828,-0.00003
5185.17000,-0.00012
5183.24171,-0.00008
5181.31342,-0.00007
5179.38513,-0.00007
5177.45684,0.00002
5175.52855,0.00016
5173.60026,0.00016
5171.67197,0.00011
5169.74368,0.00016
5167.81539,0.00020
5165.88710,0.00021
5163.95881,0.00026
5162.03052,0.00042
5160.10223,0.00057
5158.17394,0.00058
5156.24566,0.00052
5154.31737,0.00047
5152.38908,0.00047
5150.46079,0.00043
5148.53250,0.00031
5146.60421,0.00025
5144.67592,0.00039
5142.74763,0.00065
5140.81934,0.00067
5138.89105,0.00043
5136.96276,0.00030
5135.03447,0.00039
5133.10618,0.00060
5131.17789,0.00076
5129.24960,0.00072
5127.32132,0.00051
5125.39303,0.00030
5123.46474,0.00018
5121.53645,0.00023
5119.60816,0.00042
5117.67987,0.00063
5115.75158,0.00068
5113.82329,0.00054
5111.89500,0.00029
5109.96671,0.00014
5108.03842,0.00021
5106.11013,0.00029
5104.18184,0.00019
5102.25355,0.00002
5100.32527,0.00000
5098.39698,0.00021
5096.46869,0.00048
5094.54040,0.00051
5092.61211,0.00055
5090.68382,0.00079
5088.75553,0.00090
5086.82724,0.00085
5084.89895,0.00083
5082.97066,0.00079
5081.04237,0.00069
5079.11408,0.00068
5077.18579,0.00069
5075.25750,0.00056
5073.32921,0.00038
5071.40093,0.00027
5069.47264,0.00024
5067.54435,0.00037
5065.61606,0.00054
5063.68777,0.00050
5061.75948,0.00031
5059.83119,0.00022
5057.90290,0.00027
5055.97461,0.00036
5054.04632,0.00045
5052.11803,0.00053
5050.18974,0.00060
5048.26145,0.00057
5046.33316,0.00044
5044.40487,0.00026
5042.47659,0.00023
5040.54830,0.00042
5038.62001,0.00052
5036.69172,0.00037
5034.76343,0.00019
5032.83514,0.00023
5030.90685,0.00037
5028.97856,0.00042
5027.05027,0.00041
5025.12198,0.00038
5023.19369,0.00030
5021.26540,0.00027
5019.33711,0.00033
5017.40882,0.00035
5015.48053,0.00031
5013.55225,0.00024
5011.62396,0.00022
5009.69567,0.00027
5007.76738,0.00026
5005.83909,0.00013
5003.91080,0.00004
5001.98251,0.00002
5000.05422,0.00000
4998.12593,0.00006
4996.19764,0.00025
4994.26935,0.00038
4992.34106,0.00033
4990.41277,0.00026
4988.48448,0.00019
4986.55619,-0.00001
4984.62791,-0.00019
4982.69962,-0.00010
4980.77133,0.00016
4978.84304,0.00022
4976.91475,0.00003
4974.98646,-0.00014
4973.05817,-0.00013
4971.12988,-0.00006
4969.20159,-0.00005
4967.27330,-0.00006
4965.34501,-0.00002
4963.41672,0.00005
4961.48843,0.00016
4959.56014,0.00028
4957.63186,0.00030
4955.70357,0.00028
4953.77528,0.00027
4951.84699,0.00021
4949.91870,0.00013
4947.99041,0.00009
4946.06212,0.00006
4944.13383,0.00005
4942.20554,0.00013
4940.27725,0.00021
4938.34896,0.00016
4936.42067,0.00002
4934.49238,-0.00005
4932.56409,0.00002
4930.63580,0.00020
4928.70752,0.00042
4926.77923,0.00060
4924.85094,0.00057
4922.92265,0.00039
4920.99436,0.00024
4919.06607,0.00020
4917.13778,0.00019
4915.20949,0.00012
4913.28120,0.00005
4911.35291,0.00001
4909.42462,0.00006
4907.49633,0.00023
4905.56804,0.00043
4903.63975,0.00052
4901.71146,0.00042
4899.78318,0.00028
4897.85489,0.00027
4895.92660,0.00023
4893.99831,0.00003
4892.07002,-0.00011
4890.14173,-0.00009
4888.21344,-0.00005
4886.28515,-0.00003
4884.35686,-0.00009
4882.42857,-0.00020
4880.50028,-0.00010
4878.57199,0.00017
4876.64370,0.00028
4874.71541,0.00024
4872.78712,0.00022
4870.85884,0.00023
4868.93055,0.00023
4867.00226,0.00017
4865.07397,0.00007
4863.14568,0.00001
4861.21739,-0.00008
4859.28910,-0.00015
4857.36081,-0.00009
4855.43252,-0.00000
4853.50423,0.00000
4851.57594,-0.00004
4849.64765,0.00001
4847.71936,0.00007
4845.79107,0.00000
4843.86278,-0.00011
4841.93450,-0.00006
4840.00621,0.00013
4838.07792,0.00032
4836.14963,0.00040
4834.22134,0.00032
4832.29305,0.00015
4830.36476,-0.00001
4828.43647,-0.00015
4826.50818,-0.00025
4824.57989,-0.00030
4822.65160,-0.00023
4820.72331,-0.00004
4818.79502,0.00011
4816.86673,0.00023
4814.93845,0.00030
4813.01016,0.00022
4811.08187,0.00005
4809.15358,-0.00004
4807.22529,0.00010
4805.29700,0.00030
4803.36871,0.00027
4801.44042,0.00010
4799.51213,0.00000
4797.58384,0.00005
4795.65555,0.00020
4793.72726,0.00026
4791.79897,0.00026
4789.87068,0.00033
4787.94239,0.00036
4786.01411,0.00025
4784.08582,0.00010
4782.15753,0.00007
4780.22924,0.00014
4778.30095,0.00023
4776.37266,0.00032
4774.44437,0.00038
4772.51608,0.00039
4770.58779,0.00038
4768.65950,0.00034
4766.73121,0.00031
4764.80292,0.00032
4762.87463,0.00028
4760.94634,0.00017
4759.01805,0.00008
4757.08977,0.00004
4755.16148,0.00002
4753.23319,0.00010
4751.30490,0.00023
4749.37661,0.00032
4747.44832,0.00035
4745.52003,0.00031
4743.59174,0.00018
4741.66345,0.00007
4739.73516,0.00008
4737.80687,0.00013
4735.87858,0.00017
4733.95029,0.00025
4732.02200,0.00032
4730.09371,0.00020
4728.16543,-0.00005
4726.23714,-0.00016
4724.30885,-0.00010
4722.38056,-0.00006
4720.45227,-0.00015
4718.52398,-0.00023
4716.59569,-0.00009
4714.66740,0.00023
4712.73911,0.00050
4710.81082,0.00054
4708.88253,0.00041
4706.95424,0.00031
4705.02595,0.00024
4703.09766,0.00008
4701.16937,0.00000
4699.24109,0.00014
4697.31280,0.00035
4695.38451,0.00040
4693.45622,0.00032
4691.52793,0.00020
4689.59964,0.00012
4687.67135,0.00007
4685.74306,0.00003
4683.81477,-0.00003
4681.88648,-0.00005
4679.95819,-0.00001
4678.02990,0.00003
4676.10161,0.00014
4674.17332,0.00033
4672.24504,0.00051
4670.31675,0.00050
4668.38846,0.00029
4666.46017,0.00004
4664.53188,-0.00002
4662.60359,0.00007
4660.67530,0.00018
4658.74701,0.00024
4656.81872,0.00034
4654.89043,0.00040
4652.96214,0.00035
4651.03385,0.00027
4649.10556,0.00016
4647.17727,-0.00001
4645.24898,-0.00011
4643.32070,-0.00007
4641.39241,0.00004
4639.46412,0.00014
4637.53583,0.00018
4635.60754,0.00026
4633.67925,0.00037
4631.75096,0.00035
4629.82267,0.00022
4627.89438,0.00012
4625.96609,0.00008
4624.03780,0.00007
4622.10951,0.00013
4620.18122,0.00017
4618.25293,0.00013
4616.32464,0.00014
4614.39636,0.00016
4612.46807,0.00015
4610.53978,0.00012
4608.61149,0.00010
4606.68320,0.00009
4604.75491,0.00004
4602.82662,0.00000
4600.89833,0.00018
4598.97004,0.00044
4597.04175,0.00053
4595.11346,0.00041
4593.18517,0.00019
4591.25688,0.00009
4589.32859,0.00016
4587.40030,0.00028
4585.47202,0.00033
4583.54373,0.00028
4581.61544,0.00024
4579.68715,0.00026
4577.75886,0.00029
4575.83057,0.00025
4573.90228,0.00016
4571.97399,0.00016
4570.04570,0.00023
4568.11741,0.00025
4566.18912,0.00017
4564.26083,0.00014
4562.33254,0.00015
4560.40425,0.00013
4558.47596,0.00009
4556.54768,0.00003
4554.61939,0.00003
4552.69110,0.00008
4550.76281,0.00018
4548.83452,0.00028
4546.90623,0.00028
4544.97794,0.00014
4543.04965,0.00005
4541.12136,0.00009
4539.19307,0.00012
4537.26478,0.00006
4535.33649,-0.00006
4533.40820,-0.00010
4531.47991,0.00007
4529.55163,0.00030
4527.62334,0.00036
4525.69505,0.00025
4523.76676,0.00007
4521.83847,-0.00004
4519.91018,-0.00003
4517.98189,0.00002
4516.05360,0.00003
4514.12531,0.00003
4512.19702,0.00005
4510.26873,0.00005
4508.34044,0.00007
4506.41215,0.00012
4504.48386,0.00016
4502.55557,0.00018
4500.62729,0.00028
4498.69900,0.00040
4496.77071,0.00038
4494.84242,0.00024
4492.91413,0.00012
4490.98584,0.00017
4489.05755,0.00029
4487.12926,0.00030
4485.20097,0.00010
4483.27268,-0.00009
4481.34439,-0.00013
4479.41610,-0.00010
4477.48781,-0.00009
4475.55952,-0.00008
4473.63123,-0.00004
4471.70295,0.00006
4469.77466,0.00016
4467.84637,0.00019
4465.91808,0.00018
4463.98979,0.00016
4462.06150,0.00021
4460.13321,0.00033
4458.20492,0.00031
4456.27663,0.00012
4454.34834,0.00000
4452.42005,0.00008
4450.49176,0.00028
4448.56347,0.00036
4446.63518,0.00030
4444.70689,0.00020
4442.77861,0.00023
4440.85032,0.00038
4438.92203,0.00043
4436.99374,0.00030
4435.06545,0.00022
4433.13716,0.00027
4431.20887,0.00037
4429.28058,0.00030
4427.35229,0.00012
4425.42400,0.00008
4423.49571,0.00021
4421.56742,0.00038
4419.63913,0.00042
4417.71084,0.00033
4415.78255,0.00022
4413.85427,0.00028
4411.92598,0.00036
4409.99769,0.00033
4408.06940,0.00024
4406.14111,0.00022
4404.21282,0.00028
4402.28453,0.00034
4400.35624,0.00036
4398.42795,0.00037
4396.49966,0.00036
4394.57137,0.00031
4392.64308,0.00027
4390.71479,0.00023
4388.78650,0.00022
4386.85822,0.00024
4384.92993,0.00024
4383.00164,0.00013
4381.07335,0.00002
4379.14506,0.00005
4377.21677,0.00018
4375.28848,0.00027
4373.36019,0.00025
4371.43190,0.00022
4369.50361,0.00024
4367.57532,0.00026
4365.64703,0.00019
4363.71874,0.00015
4361.79045,0.00014
4359.86216,0.00018
4357.93388,0.00019
4356.00559,0.00010
4354.07730,0.00000
4352.14901,0.00002
4350.22072,0.00008
4348.29243,0.00005
4346.36414,0.00004
4344.43585,0.00019
4342.50756,0.00030
4340.57927,0.00023
4338.65098,0.00012
4336.72269,0.00013
4334.79440,0.00014
4332.86611,0.00006
4330.93782,0.00004
4329.00954,0.00015
4327.08125,0.00022
4325.15296,0.00014
4323.22467,0.00008
4321.29638,0.00014
4319.36809,0.00016
4317.43980,0.00009
4315.51151,0.00004
4313.58322,0.00013
4311.65493,0.00035
4309.72664,0.00045
4307.79835,0.00030
4305.87006,0.00011
4303.94177,0.00006
4302.01348,0.00010
4300.08520,0.00016
4298.15691,0.00017
4296.22862,0.00016
4294.30033,0.00019
4292.37204,0.00024
4290.44375,0.00024
4288.51546,0.00014
4286.58717,0.00000
4284.65888,-0.00002
4282.73059,0.00011
4280.80230,0.00023
4278.87401,0.00025
4276.94572,0.00018
4275.01743,0.00010
4273.08914,0.00012
4271.16086,0.00021
4269.23257,0.00023
4267.30428,0.00012
4265.37599,0.00009
4263.44770,0.00026
4261.51941,0.00047
4259.59112,0.00048
4257.66283,0.00038
4255.73454,0.00039
4253.80625,0.00046
4251.87796,0.00042
4249.94967,0.00027
4248.02138,0.00013
4246.09309,0.00011
4244.16481,0.00021
4242.23652,0.00035
4240.30823,0.00040
4238.37994,0.00041
4236.45165,0.00044
4234.52336,0.00038
4232.59507,0.00024
4230.66678,0.00015
4228.73849,0.00007
4226.81020,0.00000
4224.88191,0.00008
4222.95362,0.00029
4221.02533,0.00050
4219.09704,0.00062
4217.16875,0.00064
4215.24047,0.00056
4213.31218,0.00045
4211.38389,0.00036
4209.45560,0.00028
4207.52731,0.00020
4205.59902,0.00020
4203.67073,0.00026
4201.74244,0.00031
4199.81415,0.00030
4197.88586,0.00029
4195.95757,0.00027
4194.02928,0.00026
4192.10099,0.00030
4190.17270,0.00039
4188.24441,0.00039
4186.31613,0.00029
4184.38784,0.00021
4182.45955,0.00022
4180.53126,0.00021
4178.60297,0.00020
4176.67468,0.00021
4174.74639,0.00019
4172.81810,0.00011
4170.88981,0.00007
4168.96152,0.00006
4167.03323,0.00007
4165.10494,0.00004
4163.17665,0.00000
4161.24836,0.00003
4159.32007,0.00007
4157.39179,0.00004
4155.46350,0.00001
4153.53521,0.00002
4151.60692,0.00004
4149.67863,0.00003
4147.75034,0.00003
4145.82205,0.00008
4143.89376,0.00013
4141.96547,0.00012
4140.03718,0.00005
4138.10889,0.00003
4136.18060,0.00008
4134.25231,0.00017
4132.32402,0.00021
4130.39573,0.00015
4128.46745,0.00004
4126.53916,0.00003
4124.61087,0.00009
4122.68258,0.00008
4120.75429,0.00001
4118.82600,-0.00004
4116.89771,-0.00003
4114.96942,-0.00004
4113.04113,-0.00006
4111.11284,0.00002
4109.18455,0.00011
4107.25626,0.00012
4105.32797,0.00011
4103.39968,0.00020
4101.47140,0.00026
4099.54311,0.00013
4097.61482,-0.00005
4095.68653,-0.00012
4093.75824,-0.00009
4091.82995,-0.00003
4089.90166,0.00003
4087.97337,0.00005
4086.04508,0.00002
4084.11679,-0.00002
4082.18850,-0.00001
4080.26021,0.00003
4078.33192,0.00008
4076.40363,0.00013
4074.47534,0.00015
4072.54706,0.00009
4070.61877,0.00002
4068.69048,0.00000
4066.76219,0.00000
4064.83390,0.00003
4062.90561,-0.00001
4060.97732,-0.00007
4059.04903,-0.00005
4057.12074,-0.00003
4055.19245,-0.00012
4053.26416,-0.00016
4051.33587,-0.00005
4049.40758,0.00011
4047.47929,0.00018
4045.55100,0.00016
4043.62272,0.00012
4041.69443,0.00008
4039.76614,0.00001
4037.83785,-0.00004
4035.90956,-0.00003
4033.98127,-0.00005
4032.05298,-0.00010
4030.12469,-0.00009
4028.19640,0.00004
4026.26811,0.00011
4024.33982,0.00006
4022.41153,0.00002
4020.48324,0.00004
4018.55495,0.00004
4016.62666,0.00001
4014.69838,0.00003
4012.77009,0.00009
4010.84180,0.00011
4008.91351,0.00003
4006.98522,-0.00004
4005.05693,0.00006
4003.12864,0.00027
4001.20035,0.00033
3999.27206,0.00024
3997.34377,0.00013
3995.41548,0.00011
3993.48719,0.00012
3991.55890,0.00005
3989.63061,0.00000
3987.70232,0.00004
3985.77404,0.00006
3983.84575,0.00002
3981.91746,0.00001
3979.98917,0.00007
3978.06088,0.00014
3976.13259,0.00016
3974.20430,0.00012
3972.27601,0.00009
3970.34772,0.00013
3968.41943,0.00012
3966.49114,0.00008
3964.56285,0.00003
3962.63456,-0.00000
3960.70627,0.00002
3958.77799,0.00009
3956.84970,0.00006
3954.92141,-0.00009
3952.99312,-0.00016
3951.06483,-0.00007
3949.13654,-0.00003
3947.20825,-0.00004
3945.27996,0.00001
3943.35167,0.00004
3941.42338,-0.00001
3939.49509,0.00006
3937.56680,0.00021
3935.63851,0.00027
3933.71022,0.00021
3931.78193,0.00008
3929.85365,-0.00007
3927.92536,-0.00016
3925.99707,-0.00022
3924.06878,-0.00029
3922.14049,-0.00033
3920.21220,-0.00025
3918.28391,-0.00013
3916.35562,-0.00002
3914.42733,-0.00002
3912.49904,-0.00007
3910.57075,-0.00004
3908.64246,0.00001
3906.71417,0.00004
3904.78588,0.00000
3902.85759,-0.00002
3900.92931,-0.00002
3899.00102,-0.00012
3897.07273,-0.00008
3895.14444,0.00013
3893.21615,0.00020
3891.28786,0.00004
3889.35957,0.00000
3887.43128,0.00012
3885.50299,0.00015
3883.57470,0.00011
3881.64641,0.00015
3879.71812,0.00016
3877.78983,0.00010
3875.86154,0.00007
3873.93325,-0.00004
3872.00497,-0.00017
3870.07668,-0.00020
3868.14839,-0.00013
3866.22010,-0.00002
3864.29181,-0.00001
3862.36352,-0.00012
3860.43523,-0.00015
3858.50694,-0.00015
3856.57865,-0.00009
3854.65036,0.00003
3852.72207,-0.00014
3850.79378,-0.00043
3848.86549,-0.00032
3846.93720,-0.00018
3845.00891,-0.00019
3843.08063,-0.00030
3841.15234,-0.00033
3839.22405,-0.00028
3837.29576,-0.00031
3835.36747,-0.00038
3833.43918,-0.00041
3831.51089,-0.00040
3829.58260,-0.00026
3827.65431,-0.00005
3825.72602,0.00004
3823.79773,0.00005
3821.86944,0.00005
3819.94115,-0.00020
3818.01286,-0.00042
3816.08458,-0.00033
3814.15629,-0.00023
3812.22800,-0.00014
3810.29971,0.00004
3808.37142,0.00021
3806.44313,0.00018
3804.51484,-0.00004
3802.58655,-0.00021
3800.65826,-0.00027
3798.72997,-0.00018
3796.80168,-0.00003
3794.87339,0.00000
3792.94510,-0.00004
3791.01681,-0.00005
3789.08852,0.00000
3787.16024,0.00011
3785.23195,0.00022
3783.30366,0.00025
3781.37537,0.00025
3779.44708,0.00015
3777.51879,0.00005
3775.59050,0.00014
3773.66221,0.00029
3771.73392,0.00028
3769.80563,0.00011
3767.87734,-0.00001
3765.94905,0.00008
3764.02076,0.00024
3762.09247,0.00028
3760.16418,0.00012
3758.23590,-0.00015
3756.30761,-0.00023
3754.37932,-0.00013
3752.45103,-0.00002
3750.52274,-0.00003
3748.59445,-0.00017
3746.66616,-0.00011
3744.73787,0.00002
3742.80958,-0.00015
3740.88129,-0.00045
3738.95300,-0.00065
3737.02471,-0.00079
3735.09642,-0.00083
3733.16813,-0.00086
3731.23984,-0.00090
3729.31156,-0.00081
3727.38327,-0.00065
3725.45498,-0.00053
3723.52669,-0.00037
3721.59840,-0.00023
3719.67011,-0.00019
3717.74182,-0.00011
3715.81353,0.00002
3713.88524,0.00008
3711.95695,-0.00002
3710.02866,-0.00026
3708.10037,-0.00036
3706.17208,-0.00025
3704.24379,-0.00009
3702.31551,0.00004
3700.38722,0.00006
3698.45893,0.00005
3696.53064,-0.00002
3694.60235,-0.00012
3692.67406,-0.00014
3690.74577,-0.00008
3688.81748,0.00000
3686.88919,0.00012
3684.96090,0.00022
3683.03261,0.00022
3681.10432,0.00016
3679.17603,0.00013
3677.24774,0.00025
3675.31945,0.00036
3673.39117,0.00016
3671.46288,0.00007
3669.53459,0.00017
3667.60630,0.00025
3665.67801,0.00035
3663.74972,0.00045
3661.82143,0.00049
3659.89314,0.00053
3657.96485,0.00058
3656.03656,0.00058
3654.10827,0.00058
3652.17998,0.00064
3650.25169,0.00073
3648.32340,0.00055
3646.39511,0.00018
3644.46683,0.00014
3642.53854,0.00030
3640.61025,0.00043
3638.68196,0.00041
3636.75367,0.00031
3634.82538,0.00026
3632.89709,0.00024
3630.96880,0.00025
3629.04051,0.00019
3627.11222,-0.00010
3625.18393,-0.00022
3623.25564,-0.00015
3621.32735,-0.00005
3619.39906,0.00003
3617.47077,0.00009
3615.54249,0.00016
3613.61420,0.00033
3611.68591,0.00054
3609.75762,0.00058
3607.82933,0.00044
3605.90104,0.00026
3603.97275,0.00015
3602.04446,0.00000
3600.11617,-0.00016
3598.18788,-0.00008
3596.25959,0.00022
3594.33130,0.00042
3592.40301,0.00047
3590.47472,0.00052
3588.54643,0.00050
3586.61815,0.00022
3584.68986,0.00000
3582.76157,0.00013
3580.83328,0.00043
3578.90499,0.00063
3576.97670,0.00070
3575.04841,0.00073
3573.12012,0.00076
3571.19183,0.00077
3569.26354,0.00079
3567.33525,0.00074
3565.40696,0.00054
3563.47867,0.00044
3561.55038,0.00053
3559.62210,0.00072
3557.69381,0.00087
3555.76552,0.00099
3553.83723,0.00103
3551.90894,0.00097
3549.98065,0.00092
3548.05236,0.00094
3546.12407,0.00084
3544.19578,0.00068
3542.26749,0.00071
3540.33920,0.00087
3538.41091,0.00104
3536.48262,0.00116
3534.55433,0.00121
3532.62604,0.00121
3530.69776,0.00122
3528.76947,0.00124
3526.84118,0.00118
3524.91289,0.00102
3522.98460,0.00094
3521.05631,0.00108
3519.12802,0.00121
3517.19973,0.00125
3515.27144,0.00122
3513.34315,0.00115
3511.41486,0.00107
3509.48657,0.00106
3507.55828,0.00111
3505.62999,0.00113
3503.70170,0.00110
3501.77342,0.00115
3499.84513,0.00132
3497.91684,0.00139
3495.98855,0.00131
3494.06026,0.00124
3492.13197,0.00130
3490.20368,0.00143
3488.27539,0.00151
3486.34710,0.00158
3484.41881,0.00167
3482.49052,0.00168
3480.56223,0.00155
3478.63394,0.00146
3476.70565,0.00148
3474.77736,0.00153
3472.84908,0.00155
3470.92079,0.00159
3468.99250,0.00164
3467.06421,0.00163
3465.13592,0.00164
3463.20763,0.00174
3461.27934,0.00183
3459.35105,0.00182
3457.42276,0.00181
3455.49447,0.00189
3453.56618,0.00200
3451.63789,0.00208
3449.70960,0.00214
3447.78131,0.00212
3445.85302,0.00196
3443.92474,0.00189
3441.99645,0.00198
3440.06816,0.00202
3438.13987,0.00189
3436.21158,0.00177
3434.28329,0.00179
3432.35500,0.00185
3430.42671,0.00183
3428.49842,0.00177
3426.57013,0.00180
3424.64184,0.00190
3422.71355,0.00199
3420.78526,0.00201
3418.85697,0.00203
3416.92869,0.00205
3415.00040,0.00208
3413.07211,0.00214
3411.14382,0.00219
3409.21553,0.00221
3407.28724,0.00227
3405.35895,0.00232
3403.43066,0.00220
3401.50237,0.00203
3399.57408,0.00200
3397.64579,0.00206
3395.71750,0.00206
3393.78921,0.00202
3391.86092,0.00202
3389.93263,0.00210
3388.00435,0.00226
3386.07606,0.00238
3384.14777,0.00243
3382.21948,0.00241
3380.29119,0.00236
3378.36290,0.00229
3376.43461,0.00227
3374.50632,0.00233
3372.57803,0.00241
3370.64974,0.00244
3368.72145,0.00241
3366.79316,0.00238
3364.86487,0.00239
3362.93658,0.00243
3361.00829,0.00250
3359.08001,0.00258
3357.15172,0.00263
3355.22343,0.00261
3353.29514,0.00251
3351.36685,0.00238
3349.43856,0.00238
3347.51027,0.00252
3345.58198,0.00261
3343.65369,0.00258
3341.72540,0.00258
3339.79711,0.00258
3337.86882,0.00250
3335.94053,0.00248
3334.01224,0.00258
3332.08395,0.00275
3330.15567,0.00285
3328.22738,0.00279
3326.29909,0.00266
3324.37080,0.00271
3322.44251,0.00291
3320.51422,0.00303
3318.58593,0.00303
3316.65764,0.00301
3314.72935,0.00299
3312.80106,0.00295
3310.87277,0.00290
3308.94448,0.00283
3307.01619,0.00279
3305.08790,0.00279
3303.15961,0.00283
3301.23133,0.00293
3299.30304,0.00297
3297.37475,0.00292
3295.44646,0.00291
3293.51817,0.00296
3291.58988,0.00298
3289.66159,0.00303
3287.73330,0.00313
3285.80501,0.00320
3283.87672,0.00318
3281.94843,0.00315
3280.02014,0.00315
3278.09185,0.00311
3276.16356,0.00310
3274.23528,0.00315
3272.30699,0.00317
3270.37870,0.00318
3268.45041,0.00323
3266.52212,0.00319
3264.59383,0.00315
3262.66554,0.00324
3260.73725,0.00332
3258.80896,0.00326
3256.88067,0.00316
3254.95238,0.00313
3253.02409,0.00321
3251.09580,0.00334
3249.16751,0.00337
3247.23922,0.00332
3245.31094,0.00329
3243.38265,0.00329
3241.45436,0.00335
3239.52607,0.00347
3237.59778,0.00354
3235.66949,0.00348
3233.74120,0.00337
3231.81291,0.00337
3229.88462,0.00353
3227.95633,0.00371
3226.02804,0.00376
3224.09975,0.00366
3222.17146,0.00359
3220.24317,0.00367
3218.31488,0.00377
3216.38660,0.00383
3214.45831,0.00384
3212.53002,0.00381
3210.60173,0.00375
3208.67344,0.00374
3206.74515,0.00377
3204.81686,0.00381
3202.88857,0.00386
3200.96028,0.00386
3199.03199,0.00382
3197.10370,0.00380
3195.17541,0.00379
3193.24712,0.00381
3191.31883,0.00385
3189.39054,0.00388
3187.46226,0.00387
3185.53397,0.00384
3183.60568,0.00385
3181.67739,0.00392
3179.74910,0.00395
3177.82081,0.00391
3175.89252,0.00387
3173.96423,0.00389
3172.03594,0.00395
3170.10765,0.00406
3168.17936,0.00407
3166.25107,0.00398
3164.32278,0.00396
3162.39449,0.00404
3160.46620,0.00414
3158.53792,0.00416
3156.60963,0.00411
3154.68134,0.00404
3152.75305,0.00402
3150.82476,0.00407
3148.89647,0.00414
3146.96818,0.00417
3145.03989,0.00418
3143.11160,0.00418
3141.18331,0.00414
3139.25502,0.00413
3137.32673,0.00420
3135.39844,0.00424
3133.47015,0.00421
3131.54187,0.00421
3129.61358,0.00425
3127.68529,0.00427
3125.75700,0.00427
3123.82871,0.00426
3121.90042,0.00426
3119.97213,0.00427
3118.04384,0.00425
3116.11555,0.00420
3114.18726,0.00421
3112.25897,0.00428
3110.33068,0.00433
3108.40239,0.00435
3106.47410,0.00439
3104.54581,0.00446
3102.61753,0.00450
3100.68924,0.00446
3098.76095,0.00437
3096.83266,0.00433
3094.90437,0.00435
3092.97608,0.00438
3091.04779,0.00442
3089.11950,0.00448
3087.19121,0.00448
3085.26292,0.00439
3083.33463,0.00440
3081.40634,0.00444
3079.47805,0.00442
3077.54976,0.00442
3075.62147,0.00449
3073.69319,0.00453
3071.76490,0.00453
3069.83661,0.00456
3067.90832,0.00458
3065.98003,0.00462
3064.05174,0.00470
3062.12345,0.00481
3060.19516,0.00482
3058.26687,0.00476
3056.33858,0.00474
3054.41029,0.00479
3052.48200,0.00486
3050.55371,0.00487
3048.62542,0.00488
3046.69713,0.00490
3044.76885,0.00489
3042.84056,0.00484
3040.91227,0.00478
3038.98398,0.00478
3037.05569,0.00485
3035.12740,0.00491
3033.19911,0.00494
3031.27082,0.00503
3029.34253,0.00517
3027.41424,0.00526
3025.48595,0.00532
3023.55766,0.00536
3021.62937,0.00536
3019.70108,0.00534
3017.77279,0.00529
3015.84451,0.00523
3013.91622,0.00517
3011.98793,0.00516
3010.05964,0.00522
3008.13135,0.00532
3006.20306,0.00546
3004.27477,0.00557
3002.34648,0.00566
3000.41819,0.00571
2998.48990,0.00569
2996.56161,0.00568
2994.63332,0.00570
2992.70503,0.00574
2990.77674,0.00581
2988.84846,0.00589
2986.92017,0.00594
2984.99188,0.00600
2983.06359,0.00604
2981.13530,0.00609
2979.20701,0.00619
2977.27872,0.00626
2975.35043,0.00629
2973.42214,0.00636
2971.49385,0.00644
2969.56556,0.00645
2967.63727,0.00645
2965.70898,0.00654
2963.78069,0.00664
2961.85240,0.00664
2959.92412,0.00662
2957.99583,0.00662
2956.06754,0.00659
2954.13925,0.00657
2952.21096,0.00658
2950.28267,0.00668
2948.35438,0.00677
2946.42609,0.00681
2944.49780,0.00686
2942.56951,0.00698
2940.64122,0.00707
2938.71293,0.00708
2936.78464,0.00705
2934.85635,0.00709
2932.92806,0.00718
2930.99978,0.00718
2929.07149,0.00708
2927.14320,0.00703
2925.21491,0.00708
2923.28662,0.00718
2921.35833,0.00719
2919.43004,0.00713
2917.50175,0.00711
2915.57346,0.00716
2913.64517,0.00720
2911.71688,0.00725
2909.78859,0.00731
2907.86030,0.00737
2905.93201,0.00737
2904.00372,0.00735
2902.07544,0.00738
2900.14715,0.00744
2898.21886,0.00746
2896.29057,0.00741
2894.36228,0.00735
2892.43399,0.00734
2890.50570,0.00742
2888.57741,0.00750
2886.64912,0.00756
2884.72083,0.00757
2882.79254,0.00758
2880.86425,0.00762
2878.93596,0.00763
2877.00767,0.00763
2875.07938,0.00771
2873.15110,0.00779
2871.22281,0.00780
2869.29452,0.00780
2867.36623,0.00787
2865.43794,0.00795
2863.50965,0.00799
2861.58136,0.00797
2859.65307,0.00798
2857.72478,0.00797
2855.79649,0.00797
2853.86820,0.00798
2851.93991,0.00801
2850.01162,0.00806
2848.08333,0.00816
2846.15505,0.00830
2844.22676,0.00837
2842.29847,0.00839
2840.37018,0.00832
2838.44189,0.00818
2836.51360,0.00811
2834.58531,0.00818
2832.65702,0.00831
2830.72873,0.00840
2828.80044,0.00843
2826.87215,0.00839
2824.94386,0.00838
2823.01557,0.00841
2821.08728,0.00844
2819.15899,0.00844
2817.23071,0.00845
2815.30242,0.00846
2813.37413,0.00847
2811.44584,0.00848
2809.51755,0.00852
2807.58926,0.00858
2805.66097,0.00857
2803.73268,0.00856
2801.80439,0.00860
2799.87610,0.00867
2797.94781,0.00871
2796.01952,0.00876
2794.09123,0.00878
2792.16294,0.00876
2790.23465,0.00873
2788.30637,0.00874
2786.37808,0.00882
2784.44979,0.00892
2782.52150,0.00898
2780.59321,0.00901
2778.66492,0.00901
2776.73663,0.00898
2774.80834,0.00899
2772.88005,0.00901
2770.95176,0.00903
2769.02347,0.00910
2767.09518,0.00914
2765.16689,0.00915
2763.23860,0.00917
2761.31031,0.00927
2759.38203,0.00933
2757.45374,0.00932
2755.52545,0.00930
2753.59716,0.00933
2751.66887,0.00938
2749.74058,0.00939
2747.81229,0.00935
2745.88400,0.00934
2743.95571,0.00940
2742.02742,0.00949
2740.09913,0.00957
2738.17084,0.00962
2736.24255,0.00963
2734.31426,0.00966
2732.38597,0.00970
2730.45769,0.00970
2728.52940,0.00966
2726.60111,0.00963
2724.67282,0.00963
2722.74453,0.00966
2720.81624,0.00974
2718.88795,0.00988
2716.95966,0.00996
2715.03137,0.00995
2713.10308,0.00992
2711.17479,0.00992
2709.24650,0.00992
2707.31821,0.00996
2705.38992,0.01005
2703.46164,0.01012
2701.53335,0.01016
2699.60506,0.01019
2697.67677,0.01021
2695.74848,0.01019
2693.82019,0.01019
2691.89190,0.01022
2689.96361,0.01025
2688.03532,0.01025
2686.10703,0.01025
2684.17874,0.01030
2682.25045,0.01035
2680.32216,0.01038
2678.39387,0.01038
2676.46558,0.01039
2674.53730,0.01044
2672.60901,0.01052
2670.68072,0.01061
2668.75243,0.01065
2666.82414,0.01066
2664.89585,0.01065
2662.96756,0.01067
2661.03927,0.01070
2659.11098,0.01074
2657.18269,0.01076
2655.25440,0.01073
2653.32611,0.01075
2651.39782,0.01086
2649.46953,0.01102
2647.54124,0.01114
2645.61296,0.01116
2643.68467,0.01111
2641.75638,0.01106
2639.82809,0.01107
2637.89980,0.01111
2635.97151,0.01113
2634.04322,0.01116
2632.11493,0.01124
2630.18664,0.01129
2628.25835,0.01129
2626.33006,0.01128
2624.40177,0.01133
2622.47348,0.01144
2620.54519,0.01154
2618.61690,0.01159
2616.68862,0.01156
2614.76033,0.01154
2612.83204,0.01156
2610.90375,0.01162
2608.97546,0.01168
2607.04717,0.01171
2605.11888,0.01171
2603.19059,0.01174
2601.26230,0.01182
2599.33401,0.01187
2597.40572,0.01192
2595.47743,0.01197
2593.54914,0.01199
2591.62085,0.01196
2589.69256,0.01193
2587.76428,0.01196
2585.83599,0.01200
2583.90770,0.01199
2581.97941,0.01197
2580.05112,0.01199
2578.12283,0.01202
2576.19454,0.01214
2574.26625,0.01229
2572.33796,0.01235
2570.40967,0.01231
2568.48138,0.01231
2566.55309,0.01237
2564.62480,0.01242
2562.69651,0.01247
2560.76823,0.01254
2558.83994,0.01255
2556.91165,0.01250
2554.98336,0.01248
2553.05507,0.01254
2551.12678,0.01262
2549.19849,0.01261
2547.27020,0.01261
2545.34191,0.01269
2543.41362,0.01274
2541.48533,0.01271
2539.55704,0.01274
2537.62875,0.01288
2535.70046,0.01299
2533.77217,0.01300
2531.84389,0.01294
2529.91560,0.01296
2527.98731,0.01303
2526.05902,0.01308
2524.13073,0.01309
2522.20244,0.01312
2520.27415,0.01318
2518.34586,0.01317
2516.41757,0.01312
2514.48928,0.01312
2512.56099,0.01317
2510.63270,0.01324
2508.70441,0.01332
2506.77612,0.01340
2504.84783,0.01342
2502.91955,0.01340
2500.99126,0.01338
2499.06297,0.01341
2497.13468,0.01346
2495.20639,0.01351
2493.27810,0.01357
2491.34981,0.01362
2489.42152,0.01364
2487.49323,0.01361
2485.56494,0.01363
2483.63665,0.01373
2481.70836,0.01385
2479.78007,0.01391
2477.85178,0.01391
2475.92349,0.01388
2473.99521,0.01388
2472.06692,0.01389
2470.13863,0.01391
2468.21034,0.01395
2466.28205,0.01398
2464.35376,0.01399
2462.42547,0.01397
2460.49718,0.01399
2458.56889,0.01402
2456.64060,0.01410
2454.71231,0.01420
2452.78402,0.01423
2450.85573,0.01418
2448.92744,0.01416
2446.99915,0.01421
2445.07087,0.01426
2443.14258,0.01432
2441.21429,0.01437
2439.28600,0.01443
2437.35771,0.01453
2435.42942,0.01460
2433.50113,0.01459
2431.57284,0.01454
2429.64455,0.01451
2427.71626,0.01453
2425.78797,0.01459
2423.85968,0.01464
2421.93139,0.01466
2420.00310,0.01470
2418.07482,0.01473
2416.14653,0.01469
2414.21824,0.01464
2412.28995,0.01469
2410.36166,0.01481
2408.43337,0.01489
2406.50508,0.01489
2404.57679,0.01486
2402.64850,0.01487
2400.72021,0.01491
2398.79192,0.01491
2396.86363,0.01489
2394.93534,0.01492
2393.00705,0.01502
2391.07876,0.01509
2389.15048,0.01508
2387.22219,0.01497
2385.29390,0.01468
2383.36561,0.01417
2381.43732,0.01342
2379.50903,0.01244
2377.58074,0.01132
2375.65245,0.01014
2373.72416,0.00881
2371.79587,0.00722
2369.86758,0.00556
2367.93929,0.00400
2366.01100,0.00251
2364.08271,0.00116
2362.15442,0.00025
2360.22614,0.00000
2358.29785,0.00021
2356.36956,0.00082
2354.44127,0.00208
2352.51298,0.00403
2350.58469,0.00597
2348.65640,0.00695
2346.72811,0.00645
2344.79982,0.00489
2342.87153,0.00374
2340.94324,0.00356
2339.01495,0.00376
2337.08666,0.00400
2335.15837,0.00421
2333.23008,0.00434
2331.30180,0.00439
2329.37351,0.00459
2327.44522,0.00505
2325.51693,0.00552
2323.58864,0.00586
2321.66035,0.00634
2319.73206,0.00715
2317.80377,0.00809
2315.87548,0.00882
2313.94719,0.00928
2312.01890,0.00964
2310.09061,0.00998
2308.16232,0.01033
2306.23403,0.01078
2304.30574,0.01129
2302.37746,0.01168
2300.44917,0.01195
2298.52088,0.01216
2296.59259,0.01236
2294.66430,0.01256
2292.73601,0.01271
2290.80772,0.01282
2288.87943,0.01293
2286.95114,0.01304
2285.02285,0.01315
2283.09456,0.01323
2281.16627,0.01318
2279.23798,0.01305
2277.30969,0.01297
2275.38141,0.01295
2273.45312,0.01295
2271.52483,0.01293
2269.59654,0.01287
2267.66825,0.01282
2265.73996,0.01280
2263.81167,0.01275
2261.88338,0.01268
2259.95509,0.01266
2258.02680,0.01268
2256.09851,0.01270
2254.17022,0.01268
2252.24193,0.01263
2250.31364,0.01255
2248.38535,0.01248
2246.45707,0.01245
2244.52878,0.01246
2242.60049,0.01245
2240.67220,0.01241
2238.74391,0.01234
2236.81562,0.01227
2234.88733,0.01224
2232.95904,0.01225
2231.03075,0.01225
2229.10246,0.01222
2227.17417,0.01212
2225.24588,0.01200
2223.31759,0.01192
2221.38930,0.01186
2219.46101,0.01179
2217.53273,0.01174
2215.60444,0.01171
2213.67615,0.01169
2211.74786,0.01168
2209.81957,0.01168
2207.89128,0.01167
2205.96299,0.01163
2204.03470,0.01154
2202.10641,0.01147
2200.17812,0.01145
2198.24983,0.01144
2196.32154,0.01138
2194.39325,0.01131
2192.46496,0.01128
2190.53667,0.01123
2188.60839,0.01117
2186.68010,0.01113
2184.75181,0.01111
2182.82352,0.01107
2180.89523,0.01101
2178.96694,0.01094
2177.03865,0.01086
2175.11036,0.01085
2173.18207,0.01087
2171.25378,0.01085
2169.32549,0.01078
2167.39720,0.01072
2165.46891,0.01067
2163.54062,0.01061
2161.61234,0.01055
2159.68405,0.01048
2157.75576,0.01040
2155.82747,0.01032
2153.89918,0.01030
2151.97089,0.01033
2150.04260,0.01033
2148.11431,0.01028
2146.18602,0.01022
2144.25773,0.01018
2142.32944,0.01016
2140.40115,0.01013
2138.47286,0.01005
2136.54457,0.00992
2134.61628,0.00985
2132.68800,0.00985
2130.75971,0.00983
2128.83142,0.00976
2126.90313,0.00971
2124.97484,0.00969
2123.04655,0.00966
2121.11826,0.00960
2119.18997,0.00951
2117.26168,0.00943
2115.33339,0.00941
2113.40510,0.00942
2111.47681,0.00938
2109.54852,0.00932
2107.62023,0.00928
2105.69194,0.00923
2103.76366,0.00915
2101.83537,0.00909
2099.90708,0.00907
2097.97879,0.00904
2096.05050,0.00900
2094.12221,0.00896
2092.19392,0.00892
2090.26563,0.00888
2088.33734,0.00884
2086.40905,0.00878
2084.48076,0.00873
2082.55247,0.00873
2080.62418,0.00871
2078.69589,0.00865
2076.76760,0.00862
2074.83932,0.00863
2072.91103,0.00862
2070.98274,0.00855
2069.05445,0.00845
2067.12616,0.00836
2065.19787,0.00831
2063.26958,0.00827
2061.34129,0.00826
2059.41300,0.00824
2057.48471,0.00819
2055.55642,0.00812
2053.62813,0.00809
2051.69984,0.00810
2049.77155,0.00810
2047.84326,0.00805
2045.91498,0.00795
2043.98669,0.00786
2042.05840,0.00783
2040.13011,0.00783
2038.20182,0.00780
2036.27353,0.00776
2034.34524,0.00772
2032.41695,0.00770
2030.48866,0.00769
2028.56037,0.00765
2026.63208,0.00756
2024.70379,0.00746
2022.77550,0.00744
2020.84721,0.00744
2018.91893,0.00737
2016.99064,0.00731
2015.06235,0.00732
2013.13406,0.00735
2011.20577,0.00731
2009.27748,0.00722
2007.34919,0.00717
2005.42090,0.00717
2003.49261,0.00715
2001.56432,0.00709
1999.63603,0.00699
1997.70774,0.00689
1995.77945,0.00683
1993.85116,0.00677
1991.92287,0.00671
1989.99459,0.00671
1988.06630,0.00674
1986.13801,0.00673
1984.20972,0.00667
1982.28143,0.00663
1980.35314,0.00661
1978.42485,0.00662
1976.49656,0.00663
1974.56827,0.00661
1972.63998,0.00655
1970.71169,0.00649
1968.78340,0.00647
1966.85511,0.00644
1964.92682,0.00638
1962.99853,0.00634
1961.07025,0.00632
1959.14196,0.00632
1957.21367,0.00631
1955.28538,0.00628
1953.35709,0.00624
1951.42880,0.00618
1949.50051,0.00613
1947.57222,0.00610
1945.64393,0.00604
1943.71564,0.00589
1941.78735,0.00575
1939.85906,0.00578
1937.93077,0.00588
1936.00248,0.00593
1934.07419,0.00587
1932.14591,0.00579
1930.21762,0.00574
1928.28933,0.00574
1926.36104,0.00574
1924.43275,0.00568
1922.50446,0.00556
1920.57617,0.00554
1918.64788,0.00559
1916.71959,0.00562
1914.79130,0.00564
1912.86301,0.00564
1910.93472,0.00556
1909.00643,0.00548
1907.07814,0.00546
1905.14985,0.00546
1903.22157,0.00544
1901.29328,0.00542
1899.36499,0.00542
1897.43670,0.00538
1895.50841,0.00528
1893.58012,0.00524
1891.65183,0.00527
1889.72354,0.00523
1887.79525,0.00513
1885.86696,0.00510
1883.93867,0.00510
1882.01038,0.00513
1880.08209,0.00515
1878.15380,0.00510
1876.22552,0.00503
1874.29723,0.00498
1872.36894,0.00496
1870.44065,0.00488
1868.51236,0.00470
1866.58407,0.00460
1864.65578,0.00467
1862.72749,0.00476
1860.79920,0.00478
1858.87091,0.00476
1856.94262,0.00472
1855.01433,0.00466
1853.08604,0.00466
1851.15775,0.00468
1849.22946,0.00462
1847.30118,0.00448
1845.37289,0.00435
1843.44460,0.00423
1841.51631,0.00426
1839.58802,0.00441
1837.65973,0.00446
1835.73144,0.00443
1833.80315,0.00443
1831.87486,0.00445
1829.94657,0.00431
1828.01828,0.00409
1826.08999,0.00398
1824.16170,0.00394
1822.23341,0.00399
1820.30512,0.00412
1818.37684,0.00420
1816.44855,0.00419
1814.52026,0.00416
1812.59197,0.00411
1810.66368,0.00403
1808.73539,0.00400
1806.80710,0.00401
1804.87881,0.00402
1802.95052,0.00397
1801.02223,0.00384
1799.09394,0.00371
1797.16565,0.00367
1795.23736,0.00365
1793.30907,0.00355
1791.38078,0.00337
1789.45250,0.00343
1787.52421,0.00359
1785.59592,0.00362
1783.66763,0.00355
1781.73934,0.00350
1779.81105,0.00346
1777.88276,0.00347
1775.95447,0.00348
1774.02618,0.00335
1772.09789,0.00311
1770.16960,0.00312
1768.24131,0.00335
1766.31302,0.00353
1764.38473,0.00359
1762.45644,0.00346
1760.52816,0.00328
1758.59987,0.00325
1756.67158,0.00330
1754.74329,0.00334
1752.81500,0.00336
1750.88671,0.00326
1748.95842,0.00303
1747.03013,0.00293
1745.10184,0.00302
1743.17355,0.00315
1741.24526,0.00316
1739.31697,0.00308
1737.38868,0.00313
1735.46039,0.00315
1733.53211,0.00282
1731.60382,0.00262
1729.67553,0.00280
1727.74724,0.00305
1725.81895,0.00324
1723.89066,0.00329
1721.96237,0.00329
1720.03408,0.00328
1718.10579,0.00303
1716.17750,0.00251
1714.24921,0.00243
1712.32092,0.00269
1710.39263,0.00291
1708.46434,0.00294
1706.53605,0.00278
1704.60777,0.00267
1702.67948,0.00274
1700.75119,0.00262
1698.82290,0.00214
1696.89461,0.00195
1694.96632,0.00213
1693.03803,0.00239
1691.10974,0.00256
1689.18145,0.00261
1687.25316,0.00260
1685.32487,0.00248
1683.39658,0.00216
1681.46829,0.00215
1679.54000,0.00235
1677.61171,0.00248
1675.68343,0.00248
1673.75514,0.00241
1671.82685,0.00245
1669.89856,0.00240
1667.97027,0.00232
1666.04198,0.00245
1664.11369,0.00249
1662.18540,0.00236
1660.25711,0.00242
1658.32882,0.00262
1656.40053,0.00275
1654.47224,0.00260
1652.54395,0.00199
1650.61566,0.00194
1648.68737,0.00217
1646.75909,0.00211
1644.83080,0.00211
1642.90251,0.00237
1640.97422,0.00256
1639.04593,0.00258
1637.11764,0.00243
1635.18935,0.00220
1633.26106,0.00226
1631.33277,0.00246
1629.40448,0.00251
1627.47619,0.00245
1625.54790,0.00249
1623.61961,0.00247
1621.69132,0.00238
1619.76303,0.00246
1617.83475,0.00249
1615.90646,0.00231
1613.97817,0.00238
1612.04988,0.00263
1610.12159,0.00276
1608.19330,0.00274
1606.26501,0.00270
1604.33672,0.00266
1602.40843,0.00262
1600.48014,0.00266
1598.55185,0.00270
1596.62356,0.00261
1594.69527,0.00250
1592.76698,0.00254
1590.83870,0.00261
1588.91041,0.00261
1586.98212,0.00261
1585.05383,0.00266
1583.12554,0.00270
1581.19725,0.00272
1579.26896,0.00275
1577.34067,0.00267
1575.41238,0.00240
1573.48409,0.00234
1571.55580,0.00242
1569.62751,0.00230
1567.69922,0.00216
1565.77093,0.00223
1563.84264,0.00233
1561.91436,0.00244
1559.98607,0.00234
1558.05778,0.00153
1556.12949,0.00141
1554.20120,0.00183
1552.27291,0.00209
1550.34462,0.00212
1548.41633,0.00220
1546.48804,0.00244
1544.55975,0.00254
1542.63146,0.00223
1540.70317,0.00164
1538.77488,0.00142
1536.84659,0.00170
1534.91830,0.00192
1532.99002,0.00195
1531.06173,0.00205
1529.13344,0.00224
1527.20515,0.00233
1525.27686,0.00236
1523.34857,0.00229
1521.42028,0.00206
1519.49199,0.00210
1517.56370,0.00233
1515.63541,0.00242
1513.70712,0.00250
1511.77883,0.00259
1509.85054,0.00252
1507.92225,0.00204
1505.99396,0.00152
1504.06568,0.00188
1502.13739,0.00223
1500.20910,0.00226
1498.28081,0.00194
1496.35252,0.00174
1494.42423,0.00207
1492.49594,0.00240
1490.56765,0.00237
1488.63936,0.00212
1486.71107,0.00217
1484.78278,0.00245
1482.85449,0.00265
1480.92620,0.00272
1478.99791,0.00273
1477.06962,0.00262
1475.14134,0.00241
1473.21305,0.00232
1471.28476,0.00249
1469.35647,0.00261
1467.42818,0.00260
1465.49989,0.00252
1463.57160,0.00258
1461.64331,0.00276
1459.71502,0.00273
1457.78673,0.00226
1455.85844,0.00190
1453.93015,0.00218
1452.00186,0.00248
1450.07357,0.00259
1448.14529,0.00253
1446.21700,0.00250
1444.28871,0.00260
1442.36042,0.00268
1440.43213,0.00262
1438.50384,0.00239
1436.57555,0.00217
1434.64726,0.00228
1432.71897,0.00248
1430.79068,0.00256
1428.86239,0.00260
1426.93410,0.00266
1425.00581,0.00267
1423.07752,0.00256
1421.14923,0.00239
1419.22095,0.00220
1417.29266,0.00219
1415.36437,0.00241
1413.43608,0.00254
1411.50779,0.00255
1409.57950,0.00254
1407.65121,0.00256
1405.72292,0.00258
1403.79463,0.00259
1401.86634,0.00261
1399.93805,0.00253
1398.00976,0.00228
1396.08147,0.00205
1394.15318,0.00207
1392.22489,0.00225
1390.29661,0.00235
1388.36832,0.00226
1386.44003,0.00214
1384.51174,0.00216
1382.58345,0.00226
1380.65516,0.00226
1378.72687,0.00218
1376.79858,0.00208
1374.87029,0.00202
1372.94200,0.00212
1371.01371,0.00226
1369.08542,0.00234
1367.15713,0.00240
1365.22884,0.00245
1363.30055,0.00246
1361.37227,0.00250
1359.44398,0.00262
1357.51569,0.00276
1355.58740,0.00291
1353.65911,0.00307
1351.73082,0.00323
1349.80253,0.00336
1347.87424,0.00348
1345.94595,0.00359
1344.01766,0.00371
1342.08937,0.00377
1340.16108,0.00374
1338.23279,0.00381
1336.30450,0.00402
1334.37621,0.00406
1332.44793,0.00391
1330.51964,0.00372
1328.59135,0.00359
1326.66306,0.00349
1324.73477,0.00338
1322.80648,0.00327
1320.87819,0.00311
1318.94990,0.00292
1317.02161,0.00278
1315.09332,0.00265
1313.16503,0.00250
1311.23674,0.00244
1309.30845,0.00244
1307.38016,0.00238
1305.45188,0.00223
1303.52359,0.00210
1301.59530,0.00200
1299.66701,0.00191
1297.73872,0.00184
1295.81043,0.00180
1293.88214,0.00173
1291.95385,0.00162
1290.02556,0.00150
1288.09727,0.00137
1286.16898,0.00128
1284.24069,0.00125
1282.31240,0.00121
1280.38411,0.00112
1278.45582,0.00104
1276.52754,0.00099
1274.59925,0.00099
1272.67096,0.00098
1270.74267,0.00097
1268.81438,0.00094
1266.88609,0.00087
1264.95780,0.00081
1263.02951,0.00079
1261.10122,0.00080
1259.17293,0.00086
1257.24464,0.00090
1255.31635,0.00088
1253.38806,0.00086
1251.45977,0.00086
1249.53148,0.00083
1247.60320,0.00074
1245.67491,0.00067
1243.74662,0.00065
1241.81833,0.00062
1239.89004,0.00060
1237.96175,0.00065
1236.03346,0.00070
1234.10517,0.00066
1232.17688,0.00063
1230.24859,0.00063
1228.32030,0.00060
1226.39201,0.00053
1224.46372,0.00051
1222.53543,0.00057
1220.60714,0.00059
1218.67886,0.00049
1216.75057,0.00037
1214.82228,0.00036
1212.89399,0.00039
1210.96570,0.00037
1209.03741,0.00031
1207.10912,0.00023
1205.18083,0.00019
1203.25254,0.00021
1201.32425,0.00022
1199.39596,0.00017
1197.46767,0.00013
1195.53938,0.00020
1193.61109,0.00031
1191.68280,0.00038
1189.75452,0.00041
1187.82623,0.00042
1185.89794,0.00043
1183.96965,0.00046
1182.04136,0.00046
1180.11307,0.00043
1178.18478,0.00040
1176.25649,0.00036
1174.32820,0.00031
1172.39991,0.00023
1170.47162,0.00013
1168.54333,0.00010
1166.61504,0.00014
1164.68675,0.00017
1162.75847,0.00015
1160.83018,0.00010
1158.90189,0.00005
1156.97360,-0.00007
1155.04531,-0.00023
1153.11702,-0.00030
1151.18873,-0.00030
1149.26044,-0.00031
1147.33215,-0.00033
1145.40386,-0.00033
1143.47557,-0.00032
1141.54728,-0.00031
1139.61899,-0.00029
1137.69070,-0.00025
1135.76241,-0.00014
1133.83413,0.00004
1131.90584,0.00021
1129.97755,0.00036
1128.04926,0.00056
1126.12097,0.00090
1124.19268,0.00131
1122.26439,0.00167
1120.33610,0.00195
1118.40781,0.00225
1116.47952,0.00257
1114.55123,0.00288
1112.62294,0.00312
1110.69465,0.00328
1108.76636,0.00336
1106.83807,0.00332
1104.90979,0.00320
1102.98150,0.00305
1101.05321,0.00285
1099.12492,0.00262
1097.19663,0.00240
1095.26834,0.00219
1093.34005,0.00196
1091.41176,0.00165
1089.48347,0.00129
1087.55518,0.00098
1085.62689,0.00072
1083.69860,0.00047
1081.77031,0.00029
1079.84202,0.00015
1077.91373,0.00000
1075.98545,-0.00013
1074.05716,-0.00024
1072.12887,-0.00037
1070.20058,-0.00045
1068.27229,-0.00050
1066.34400,-0.00055
1064.41571,-0.00064
1062.48742,-0.00074
1060.55913,-0.00081
1058.63084,-0.00083
1056.70255,-0.00085
1054.77426,-0.00083
1052.84597,-0.00083
1050.91768,-0.00080
1048.98939,-0.00078
1047.06111,-0.00078
1045.13282,-0.00078
1043.20453,-0.00071
1041.27624,-0.00070
1039.34795,-0.00074
1037.41966,-0.00078
1035.49137,-0.00076
1033.56308,-0.00072
1031.63479,-0.00065
1029.70650,-0.00057
1027.77821,-0.00049
1025.84992,-0.00045
1023.92163,-0.00043
1021.99334,-0.00041
1020.06506,-0.00038
1018.13677,-0.00033
1016.20848,-0.00030
1014.28019,-0.00025
1012.35190,-0.00020
1010.42361,-0.00014
1008.49532,-0.00010
1006.56703,-0.00006
1004.63874,0.00000
1002.71045,0.00008
1000.78216,0.00014
998.85387,0.00017
996.92558,0.00020
994.99729,0.00026
993.06900,0.00030
991.14072,0.00042
989.21243,0.00055
987.28414,0.00062
985.35585,0.00067
983.42756,0.00080
981.49927,0.00095
979.57098,0.00105
977.64269,0.00112
975.71440,0.00124
973.78611,0.00145
971.85782,0.00164
969.92953,0.00175
968.00124,0.00181
966.07295,0.00188
964.14466,0.00201
962.21638,0.00220
960.28809,0.00238
958.35980,0.00254
956.43151,0.00266
954.50322,0.00283
952.57493,0.00309
950.64664,0.00334
948.71835,0.00351
946.79006,0.00363
944.86177,0.00375
942.93348,0.00393
941.00519,0.00419
939.07690,0.00451
937.14861,0.00476
935.22032,0.00493
933.29204,0.00505
931.36375,0.00522
929.43546,0.00549
927.50717,0.00586
925.57888,0.00622
923.65059,0.00659
921.72230,0.00697
919.79401,0.00742
917.86572,0.00791
915.93743,0.00843
914.00914,0.00900
912.08085,0.00960
910.15256,0.01031
908.22427,0.01118
906.29598,0.01228
904.36770,0.01364
902.43941,0.01531
900.51112,0.01724
898.58283,0.01968
896.65454,0.02287
894.72625,0.02687
892.79796,0.03134
890.86967,0.03561
888.94138,0.03879
887.01309,0.04002
885.08480,0.03889
883.15651,0.03597
881.22822,0.03221
879.29993,0.02850
877.37165,0.02533
875.44336,0.02274
873.51507,0.02071
871.58678,0.01923
869.65849,0.01811
867.73020,0.01730
865.80191,0.01677
863.87362,0.01644
861.94533,0.01621
860.01704,0.01599
858.08875,0.01588
856.16046,0.01595
854.23217,0.01616
852.30388,0.01639
850.37559,0.01668
848.44731,0.01708
846.51902,0.01758
844.59073,0.01812
842.66244,0.01867
840.73415,0.01921
838.80586,0.01979
836.87757,0.02040
834.94928,0.02106
833.02099,0.02173
831.09270,0.02231
829.16441,0.02281
827.23612,0.02345
825.30783,0.02410
823.37954,0.02462
821.45125,0.02511
819.52297,0.02574
817.59468,0.02646
815.66639,0.02726
813.73810,0.02810
811.80981,0.02895
809.88152,0.02974
807.95323,0.03052
806.02494,0.03145
804.09665,0.03247
802.16836,0.03348
800.24007,0.03446
798.31178,0.03552
796.38349,0.03670
794.45520,0.03803
792.52691,0.03952
790.59863,0.04115
788.67034,0.04285
786.74205,0.04459
784.81376,0.04637
782.88547,0.04829
780.95718,0.05036
779.02889,0.05265
777.10060,0.05504
775.17231,0.05754
773.24402,0.06021
771.31573,0.06310
769.38744,0.06609
767.45915,0.06917
765.53086,0.07240
763.60257,0.07580
761.67429,0.07941
759.74600,0.08328
757.81771,0.08745
755.88942,0.09186
753.96113,0.09646
752.03284,0.10129
750.10455,0.10646
748.17626,0.11198
746.24797,0.11780
744.31968,0.12393
742.39139,0.13045
740.46310,0.13737
738.53481,0.14476
736.60652,0.15231
734.67824,0.15990
732.74995,0.16758
730.82166,0.17560
728.89337,0.18397
726.96508,0.19288
725.03679,0.20271
723.10850,0.21360
721.18021,0.22605
719.25192,0.24070
717.32363,0.25756
715.39534,0.27665
713.46705,0.29818
711.53876,0.32207
709.61047,0.34822
707.68218,0.37676
705.75390,0.40749
703.82561,0.44022
701.89732,0.47460
699.96903,0.51057
698.04074,0.54876
696.11245,0.58965
694.18416,0.63400
692.25587,0.68232
690.32758,0.73483
688.39929,0.79126
686.47100,0.85044
684.54271,0.91140
682.61442,0.97363
680.68613,1.03451
678.75784,1.08973
676.82956,1.13411
674.90127,1.16109
672.97298,1.16594
671.04469,1.15009
669.11640,1.10308
667.18811,1.02352
665.25982,0.95944
663.33153,0.90613
661.40324,0.84975
659.47495,0.79664
657.54666,0.75098
655.61837,0.71127
653.69008,0.67449
651.76179,0.63795
649.83350,0.60025
647.90522,0.56182
645.97693,0.52388
644.04864,0.48664
642.12035,0.45035
640.19206,0.41528
638.26377,0.38222
636.33548,0.35154
634.40719,0.32341
632.47890,0.29805
630.55061,0.27536
628.62232,0.25499
626.69403,0.23626
624.76574,0.21883
622.83745,0.20252
620.90916,0.18792
618.98088,0.17509
617.05259,0.16355
615.12430,0.15371
613.19601,0.14498
611.26772,0.13647
609.33943,0.12752
607.41114,0.11895
605.48285,0.11090
603.55456,0.10385
601.62627,0.09763
599.69798,0.09022
597.76969,0.08258
595.84140,0.07563
593.91311,0.06914
591.98483,0.06230
590.05654,0.05557
588.12825,0.04953
586.19996,0.04338
584.27167,0.03815
582.34338,0.03432
580.41509,0.03148
578.48680,0.02873
576.55851,0.02561
574.63022,0.02203
572.70193,0.01802
570.77364,0.01489
568.84535,0.01303
566.91706,0.01312
564.98877,0.01315
563.06049,0.01172
561.13220,0.00987
559.20391,0.00865
557.27562,0.00811
555.34733,0.00610
553.41904,0.00297
551.49075,0.00020
549.56246,0.00000
