6997.76196,-0.00036
6995.83367,-0.00103
6993.90538,-0.00153
6991.97709,-0.00163
6990.04880,-0.00157
6988.12051,-0.00095
6986.19222,0.00001
6984.26393,0.00012
6982.33565,-0.00025
6980.40736,0.00032
6978.47907,0.00159
6976.55078,0.00252
6974.62249,0.00266
6972.69420,0.00205
6970.76591,0.00111
6968.83762,0.00075
6966.90933,0.00092
6964.98104,0.00065
6963.05275,0.00008
6961.12446,0.00010
6959.19617,0.00047
6957.26788,0.00061
6955.33959,0.00033
6953.41131,-0.00007
6951.48302,-0.00016
6949.55473,0.00024
6947.62644,0.00065
6945.69815,0.00051
6943.76986,0.00018
6941.84157,0.00010
6939.91328,-0.00009
6937.98499,-0.00045
6936.05670,-0.00007
6934.12841,0.00099
6932.20012,0.00198
6930.27183,0.00248
6928.34354,0.00216
6926.41526,0.00167
6924.48697,0.00134
6922.55868,0.00050
6920.63039,-0.00027
6918.70210,-0.00055
6916.77381,-0.00070
6914.84552,-0.00051
6912.91723,-0.00011
6910.98894,0.00006
6909.06065,0.00020
6907.13236,0.00034
6905.20407,0.00016
6903.27578,0.00000
6901.34749,0.00038
6899.41920,0.00074
6897.49092,0.00103
6895.56263,0.00185
6893.63434,0.00229
6891.70605,0.00158
6889.77776,0.00096
6887.84947,0.00131
6885.92118,0.00175
6883.99289,0.00150
6882.06460,0.00080
6880.13631,0.00042
6878.20802,0.00064
6876.27973,0.00120
6874.35144,0.00160
6872.42315,0.00174
6870.49486,0.00194
6868.56658,0.00213
6866.63829,0.00196
6864.71000,0.00174
6862.78171,0.00167
6860.85342,0.00166
6858.92513,0.00166
6856.99684,0.00168
6855.06855,0.00165
6853.14026,0.00150
6851.21197,0.00108
6849.28368,0.00058
6847.35539,0.00074
6845.42710,0.00131
6843.49881,0.00131
6841.57052,0.00113
6839.64224,0.00118
6837.71395,0.00081
6835.78566,0.00026
6833.85737,0.00009
6831.92908,0.00040
6830.00079,0.00098
6828.07250,0.00146
6826.14421,0.00145
6824.21592,0.00080
6822.28763,0.00010
6820.35934,0.00032
6818.43105,0.00119
6816.50276,0.00200
6814.57447,0.00263
6812.64618,0.00285
6810.71790,0.00221
6808.78961,0.00158
6806.86132,0.00170
6804.93303,0.00161
6803.00474,0.00106
6801.07645,0.00109
6799.14816,0.00179
6797.21987,0.00221
6795.29158,0.00218
6793.36329,0.00214
6791.43500,0.00172
6789.50671,0.00056
6787.57842,-0.00009
6785.65013,0.00062
6783.72185,0.00165
6781.79356,0.00220
6779.86527,0.00265
6777.93698,0.00296
6776.00869,0.00295
6774.08040,0.00238
6772.15211,0.00168
6770.22382,0.00212
6768.29553,0.00314
6766.36724,0.00295
6764.43895,0.00214
6762.51066,0.00187
6760.58237,0.00182
6758.65408,0.00212
6756.72579,0.00266
6754.79751,0.00252
6752.86922,0.00208
6750.94093,0.00216
6749.01264,0.00259
6747.08435,0.00281
6745.15606,0.00256
6743.22777,0.00231
6741.29948,0.00236
6739.37119,0.00261
6737.44290,0.00277
6735.51461,0.00258
6733.58632,0.00227
6731.65803,0.00220
6729.72974,0.00221
6727.80145,0.00186
6725.87317,0.00129
6723.94488,0.00155
6722.01659,0.00250
6720.08830,0.00272
6718.16001,0.00205
6716.23172,0.00145
6714.30343,0.00083
6712.37514,0.00010
6710.44685,0.00000
6708.51856,0.00070
6706.59027,0.00135
6704.66198,0.00167
6702.73369,0.00185
6700.80540,0.00190
6698.87711,0.00201
6696.94883,0.00217
6695.02054,0.00181
6693.09225,0.00145
6691.16396,0.00166
6689.23567,0.00187
6687.30738,0.00216
6685.37909,0.00273
6683.45080,0.00296
6681.52251,0.00315
6679.59422,0.00336
6677.66593,0.00260
6675.73764,0.00132
6673.80935,0.00077
6671.88106,0.00084
6669.95277,0.00119
6668.02449,0.00164
6666.09620,0.00207
6664.16791,0.00234
6662.23962,0.00224
6660.31133,0.00197
6658.38304,0.00185
6656.45475,0.00192
6654.52646,0.00214
6652.59817,0.00223
6650.66988,0.00199
6648.74159,0.00176
6646.81330,0.00169
6644.88501,0.00198
6642.95672,0.00257
6641.02844,0.00278
6639.10015,0.00235
6637.17186,0.00187
6635.24357,0.00175
6633.31528,0.00194
6631.38699,0.00227
6629.45870,0.00278
6627.53041,0.00313
6625.60212,0.00323
6623.67383,0.00322
6621.74554,0.00300
6619.81725,0.00281
6617.88896,0.00298
6615.96067,0.00297
6614.03238,0.00235
6612.10410,0.00163
6610.17581,0.00135
6608.24752,0.00164
6606.31923,0.00221
6604.39094,0.00243
6602.46265,0.00224
6600.53436,0.00219
6598.60607,0.00217
6596.67778,0.00163
6594.74949,0.00097
6592.82120,0.00095
6590.89291,0.00138
6588.96462,0.00200
6587.03633,0.00259
6585.10804,0.00273
6583.17976,0.00240
6581.25147,0.00238
6579.32318,0.00274
6577.39489,0.00286
6575.46660,0.00283
6573.53831,0.00276
6571.61002,0.00233
6569.68173,0.00213
6567.75344,0.00247
6565.82515,0.00275
6563.89686,0.00264
6561.96857,0.00254
6560.04028,0.00266
6558.11199,0.00281
6556.18370,0.00329
6554.25542,0.00390
6552.32713,0.00375
6550.39884,0.00324
6548.47055,0.00342
6546.54226,0.00390
6544.61397,0.00390
6542.68568,0.00343
6540.75739,0.00321
6538.82910,0.00351
6536.90081,0.00358
6534.97252,0.00295
6533.04423,0.00212
6531.11594,0.00150
6529.18765,0.00139
6527.25936,0.00165
6525.33108,0.00192
6523.40279,0.00215
6521.47450,0.00252
6519.54621,0.00280
6517.61792,0.00279
6515.68963,0.00266
6513.76134,0.00252
6511.83305,0.00226
6509.90476,0.00204
6507.97647,0.00211
6506.04818,0.00212
6504.11989,0.00207
6502.19160,0.00223
6500.26331,0.00256
6498.33503,0.00307
6496.40674,0.00349
6494.47845,0.00318
6492.55016,0.00238
6490.62187,0.00178
6488.69358,0.00181
6486.76529,0.00222
6484.83700,0.00238
6482.90871,0.00215
6480.98042,0.00199
6479.05213,0.00187
6477.12384,0.00171
6475.19555,0.00182
6473.26726,0.00220
6471.33897,0.00233
6469.41069,0.00217
6467.48240,0.00222
6465.55411,0.00241
6463.62582,0.00251
6461.69753,0.00275
6459.76924,0.00309
6457.84095,0.00311
6455.91266,0.00298
6453.98437,0.00273
6452.05608,0.00234
6450.12779,0.00201
6448.19950,0.00171
6446.27121,0.00130
6444.34292,0.00099
6442.41463,0.00104
6440.48635,0.00169
6438.55806,0.00242
6436.62977,0.00264
6434.70148,0.00235
6432.77319,0.00194
6430.84490,0.00161
6428.91661,0.00169
6426.98832,0.00216
6425.06003,0.00241
6423.13174,0.00212
6421.20345,0.00174
6419.27516,0.00175
6417.34687,0.00197
6415.41858,0.00207
6413.49029,0.00211
6411.56201,0.00212
6409.63372,0.00201
6407.70543,0.00181
6405.77714,0.00163
6403.84885,0.00175
6401.92056,0.00196
6399.99227,0.00203
6398.06398,0.00193
6396.13569,0.00172
6394.20740,0.00180
6392.27911,0.00204
6390.35082,0.00180
6388.42253,0.00141
6386.49424,0.00130
6384.56595,0.00130
6382.63767,0.00144
6380.70938,0.00192
6378.78109,0.00217
6376.85280,0.00162
6374.92451,0.00101
6372.99622,0.00127
6371.06793,0.00178
6369.13964,0.00178
6367.21135,0.00163
6365.28306,0.00168
6363.35477,0.00171
6361.42648,0.00157
6359.49819,0.00153
6357.56990,0.00198
6355.64162,0.00260
6353.71333,0.00226
6351.78504,0.00125
6349.85675,0.00114
6347.92846,0.00199
6346.00017,0.00272
6344.07188,0.00273
6342.14359,0.00198
6340.21530,0.00132
6338.28701,0.00165
6336.35872,0.00248
6334.43043,0.00258
6332.50214,0.00196
6330.57385,0.00134
6328.64556,0.00145
6326.71728,0.00207
6324.78899,0.00198
6322.86070,0.00118
6320.93241,0.00097
6319.00412,0.00127
6317.07583,0.00129
6315.14754,0.00137
6313.21925,0.00172
6311.29096,0.00190
6309.36267,0.00188
6307.43438,0.00208
6305.50609,0.00230
6303.57780,0.00208
6301.64951,0.00149
6299.72122,0.00092
6297.79294,0.00095
6295.86465,0.00156
6293.93636,0.00162
6292.00807,0.00108
6290.07978,0.00091
6288.15149,0.00106
6286.22320,0.00108
6284.29491,0.00121
6282.36662,0.00142
6280.43833,0.00123
6278.51004,0.00087
6276.58175,0.00101
6274.65346,0.00149
6272.72517,0.00187
6270.79688,0.00171
6268.86860,0.00112
6266.94031,0.00095
6265.01202,0.00135
6263.08373,0.00176
6261.15544,0.00198
6259.22715,0.00209
6257.29886,0.00179
6255.37057,0.00114
6253.44228,0.00084
6251.51399,0.00095
6249.58570,0.00112
6247.65741,0.00170
6245.72912,0.00245
6243.80083,0.00251
6241.87254,0.00184
6239.94426,0.00125
6238.01597,0.00115
6236.08768,0.00118
6234.15939,0.00096
6232.23110,0.00093
6230.30281,0.00131
6228.37452,0.00171
6226.44623,0.00187
6224.51794,0.00174
6222.58965,0.00159
6220.66136,0.00158
6218.73307,0.00169
6216.80478,0.00204
6214.87649,0.00254
6212.94821,0.00269
6211.01992,0.00240
6209.09163,0.00186
6207.16334,0.00122
6205.23505,0.00072
6203.30676,0.00071
6201.37847,0.00125
6199.45018,0.00207
6197.52189,0.00254
6195.59360,0.00231
6193.66531,0.00167
6191.73702,0.00127
6189.80873,0.00119
6187.88044,0.00092
6185.95215,0.00048
6184.02387,0.00061
6182.09558,0.00102
6180.16729,0.00106
6178.23900,0.00103
6176.31071,0.00127
6174.38242,0.00148
6172.45413,0.00140
6170.52584,0.00113
6168.59755,0.00096
6166.66926,0.00107
6164.74097,0.00124
6162.81268,0.00130
6160.88439,0.00118
6158.95610,0.00128
6157.02781,0.00177
6155.09953,0.00204
6153.17124,0.00171
6151.24295,0.00116
6149.31466,0.00095
6147.38637,0.00129
6145.45808,0.00176
6143.52979,0.00201
6141.60150,0.00197
6139.67321,0.00169
6137.74492,0.00137
6135.81663,0.00134
6133.88834,0.00150
6131.96005,0.00160
6130.03176,0.00181
6128.10347,0.00222
6126.17519,0.00239
6124.24690,0.00205
6122.31861,0.00159
6120.39032,0.00139
6118.46203,0.00147
6116.53374,0.00141
6114.60545,0.00118
6112.67716,0.00095
6110.74887,0.00078
6108.82058,0.00071
6106.89229,0.00082
6104.96400,0.00094
6103.03571,0.00087
6101.10742,0.00069
6099.17913,0.00050
6097.25085,0.00018
6095.32256,-0.00004
6093.39427,0.00011
6091.46598,0.00050
6089.53769,0.00073
6087.60940,0.00092
6085.68111,0.00123
6083.75282,0.00124
6081.82453,0.00077
6079.89624,0.00053
6077.96795,0.00098
6076.03966,0.00151
6074.11137,0.00165
6072.18308,0.00158
6070.25480,0.00144
6068.32651,0.00127
6066.39822,0.00132
6064.46993,0.00168
6062.54164,0.00187
6060.61335,0.00138
6058.68506,0.00083
6056.75677,0.00076
6054.82848,0.00088
6052.90019,0.00095
6050.97190,0.00087
6049.04361,0.00046
6047.11532,0.00032
6045.18703,0.00069
6043.25874,0.00079
6041.33046,0.00051
6039.40217,0.00059
6037.47388,0.00087
6035.54559,0.00079
6033.61730,0.00044
6031.68901,0.00041
6029.76072,0.00081
6027.83243,0.00113
6025.90414,0.00119
6023.97585,0.00122
6022.04756,0.00129
6020.11927,0.00134
6018.19098,0.00154
6016.26269,0.00150
6014.33440,0.00077
6012.40612,0.00008
6010.47783,0.00033
6008.54954,0.00091
6006.62125,0.00098
6004.69296,0.00060
6002.76467,0.00035
6000.83638,0.00040
5998.90809,0.00051
5996.97980,0.00061
5995.05151,0.00071
5993.12322,0.00061
5991.19493,0.00064
5989.26664,0.00092
5987.33835,0.00089
5985.41006,0.00028
5983.48178,-0.00031
5981.55349,-0.00021
5979.62520,0.00045
5977.69691,0.00104
5975.76862,0.00122
5973.84033,0.00144
5971.91204,0.00192
5969.98375,0.00212
5968.05546,0.00170
5966.12717,0.00112
5964.19888,0.00078
5962.27059,0.00069
5960.34230,0.00086
5958.41401,0.00118
5956.48572,0.00127
5954.55744,0.00116
5952.62915,0.00109
5950.70086,0.00103
5948.77257,0.00080
5946.84428,0.00071
5944.91599,0.00105
5942.98770,0.00155
5941.05941,0.00154
5939.13112,0.00110
5937.20283,0.00087
5935.27454,0.00095
5933.34625,0.00104
5931.41796,0.00096
5929.48967,0.00085
5927.56139,0.00095
5925.63310,0.00117
5923.70481,0.00102
5921.77652,0.00076
5919.84823,0.00077
5917.91994,0.00082
5915.99165,0.00067
5914.06336,0.00061
5912.13507,0.00057
5910.20678,0.00041
5908.27849,0.00036
5906.35020,0.00055
5904.42191,0.00072
5902.49362,0.00075
5900.56533,0.00069
5898.63705,0.00066
5896.70876,0.00074
5894.78047,0.00098
5892.85218,0.00121
5890.92389,0.00133
5888.99560,0.00144
5887.06731,0.00153
5885.13902,0.00138
5883.21073,0.00099
5881.28244,0.00075
5879.35415,0.00080
5877.42586,0.00092
5875.49757,0.00080
5873.56928,0.00047
5871.64099,0.00027
5869.71271,0.00038
5867.78442,0.00047
5865.85613,0.00062
5863.92784,0.00098
5861.99955,0.00109
5860.07126,0.00094
5858.14297,0.00089
5856.21468,0.00084
5854.28639,0.00090
5852.35810,0.00111
5850.42981,0.00113
5848.50152,0.00092
5846.57323,0.00083
5844.64494,0.00093
5842.71665,0.00087
5840.78837,0.00046
5838.86008,0.00013
5836.93179,0.00025
5835.00350,0.00057
5833.07521,0.00080
5831.14692,0.00089
5829.21863,0.00088
5827.29034,0.00088
5825.36205,0.00102
5823.43376,0.00113
5821.50547,0.00107
5819.57718,0.00078
5817.64889,0.00043
5815.72060,0.00033
5813.79231,0.00063
5811.86403,0.00103
5809.93574,0.00130
5808.00745,0.00143
5806.07916,0.00132
5804.15087,0.00097
5802.22258,0.00067
5800.29429,0.00062
5798.36600,0.00089
5796.43771,0.00099
5794.50942,0.00067
5792.58113,0.00031
5790.65284,0.00026
5788.72455,0.00045
5786.79626,0.00067
5784.86798,0.00093
5782.93969,0.00106
5781.01140,0.00095
5779.08311,0.00079
5777.15482,0.00082
5775.22653,0.00086
5773.29824,0.00074
5771.36995,0.00070
5769.44166,0.00076
5767.51337,0.00059
5765.58508,0.00033
5763.65679,0.00030
5761.72850,0.00057
5759.80021,0.00084
5757.87192,0.00088
5755.94364,0.00072
5754.01535,0.00054
5752.08706,0.00044
5750.15877,0.00040
5748.23048,0.00026
5746.30219,0.00014
5744.37390,0.00030
5742.44561,0.00054
5740.51732,0.00071
5738.58903,0.00094
5736.66074,0.00114
5734.73245,0.00122
5732.80416,0.00117
5730.87587,0.00094
5728.94758,0.00087
5727.01930,0.00103
5725.09101,0.00117
5723.16272,0.00108
5721.23443,0.00085
5719.30614,0.00063
5717.37785,0.00051
5715.44956,0.00038
5713.52127,0.00039
5711.59298,0.00061
5709.66469,0.00072
5707.73640,0.00049
5705.80811,0.00014
5703.87982,0.00001
5701.95153,0.00005
5700.02324,-0.00006
5698.09496,0.00000
5696.16667,0.00034
5694.23838,0.00050
5692.31009,0.00033
5690.38180,0.00020
5688.45351,0.00040
5686.52522,0.00058
5684.59693,0.00054
5682.66864,0.00040
5680.74035,0.00036
5678.81206,0.00058
5676.88377,0.00080
5674.95548,0.00073
5673.02719,0.00057
5671.09890,0.00056
5669.17062,0.00063
5667.24233,0.00061
5665.31404,0.00054
5663.38575,0.00048
5661.45746,0.00047
5659.52917,0.00055
5657.60088,0.00075
5655.67259,0.00089
5653.74430,0.00090
5651.81601,0.00078
5649.88772,0.00064
5647.95943,0.00065
5646.03114,0.00090
5644.10285,0.00121
5642.17457,0.00127
5640.24628,0.00102
5638.31799,0.00076
5636.38970,0.00066
5634.46141,0.00067
5632.53312,0.00058
5630.60483,0.00048
5628.67654,0.00065
5626.74825,0.00095
5624.81996,0.00104
5622.89167,0.00084
5620.96338,0.00058
5619.03509,0.00055
5617.10680,0.00077
5615.17851,0.00099
5613.25023,0.00117
5611.32194,0.00126
5609.39365,0.00103
5607.46536,0.00071
5605.53707,0.00055
5603.60878,0.00042
5601.68049,0.00046
5599.75220,0.00091
5597.82391,0.00128
5595.89562,0.00114
5593.96733,0.00084
5592.03904,0.00076
5590.11075,0.00078
5588.18246,0.00063
5586.25417,0.00035
5584.32589,0.00023
5582.39760,0.00030
5580.46931,0.00049
5578.54102,0.00074
5576.61273,0.00098
5574.68444,0.00105
5572.75615,0.00075
5570.82786,0.00040
5568.89957,0.00045
5566.97128,0.00068
5565.04299,0.00071
5563.11470,0.00052
5561.18641,0.00045
5559.25812,0.00049
5557.32983,0.00041
5555.40155,0.00037
5553.47326,0.00053
5551.54497,0.00068
5549.61668,0.00060
5547.68839,0.00044
5545.76010,0.00055
5543.83181,0.00083
5541.90352,0.00083
5539.97523,0.00049
5538.04694,0.00020
5536.11865,0.00024
5534.19036,0.00054
5532.26207,0.00080
5530.33378,0.00086
5528.40549,0.00085
5526.47721,0.00084
5524.54892,0.00066
5522.62063,0.00041
5520.69234,0.00032
5518.76405,0.00052
5516.83576,0.00097
5514.90747,0.00131
5512.97918,0.00124
5511.05089,0.00094
5509.12260,0.00063
5507.19431,0.00033
5505.26602,0.00002
5503.33773,0.00000
5501.40944,0.00021
5499.48116,0.00038
5497.55287,0.00046
5495.62458,0.00054
5493.69629,0.00059
5491.76800,0.00061
5489.83971,0.00063
5487.91142,0.00052
5485.98313,0.00039
5484.05484,0.00054
5482.12655,0.00076
5480.19826,0.00079
5478.26997,0.00066
5476.34168,0.00059
5474.41339,0.00056
5472.48510,0.00042
5470.55682,0.00029
5468.62853,0.00022
5466.70024,0.00024
5464.77195,0.00043
5462.84366,0.00068
5460.91537,0.00066
5458.98708,0.00025
5457.05879,-0.00012
5455.13050,-0.00015
5453.20221,0.00004
5451.27392,0.00018
5449.34563,0.00029
5447.41734,0.00047
5445.48905,0.00040
5443.56076,0.00001
5441.63248,-0.00013
5439.70419,0.00018
5437.77590,0.00057
5435.84761,0.00090
5433.91932,0.00102
5431.99103,0.00078
5430.06274,0.00058
5428.13445,0.00062
5426.20616,0.00071
5424.27787,0.00067
5422.34958,0.00054
5420.42129,0.00045
5418.49300,0.00040
5416.56471,0.00039
5414.63642,0.00053
5412.70814,0.00078
5410.77985,0.00097
5408.85156,0.00089
5406.92327,0.00065
5404.99498,0.00044
5403.06669,0.00019
5401.13840,0.00007
5399.21011,0.00019
5397.28182,0.00039
5395.35353,0.00062
5393.42524,0.00084
5391.49695,0.00077
5389.56866,0.00059
5387.64037,0.00065
5385.71209,0.00081
5383.78380,0.00074
5381.85551,0.00068
5379.92722,0.00094
5377.99893,0.00111
5376.07064,0.00066
5374.14235,0.00024
5372.21406,0.00043
5370.28577,0.00064
5368.35748,0.00060
5366.42919,0.00067
5364.50090,0.00081
5362.57261,0.00069
5360.64432,0.00049
5358.71603,0.00045
5356.78775,0.00036
5354.85946,0.00019
5352.93117,0.00009
5351.00288,0.00015
5349.07459,0.00028
5347.14630,0.00046
5345.21801,0.00077
5343.28972,0.00100
5341.36143,0.00094
5339.43314,0.00084
5337.50485,0.00085
5335.57656,0.00086
5333.64827,0.00078
5331.71998,0.00061
5329.79169,0.00047
5327.86341,0.00059
5325.93512,0.00089
5324.00683,0.00102
5322.07854,0.00085
5320.15025,0.00067
5318.22196,0.00060
5316.29367,0.00048
5314.36538,0.00038
5312.43709,0.00034
5310.50880,0.00031
5308.58051,0.00035
5306.65222,0.00031
5304.72393,0.00013
5302.79564,0.00000
5300.86735,0.00011
5298.93907,0.00038
5297.01078,0.00061
5295.08249,0.00079
5293.15420,0.00087
5291.22591,0.00076
5289.29762,0.00054
5287.36933,0.00044
5285.44104,0.00049
5283.51275,0.00060
5281.58446,0.00060
5279.65617,0.00045
5277.72788,0.00030
5275.79959,0.00026
5273.87130,0.00034
5271.94301,0.00046
5270.01473,0.00053
5268.08644,0.00059
5266.15815,0.00055
5264.22986,0.00039
5262.30157,0.00029
5260.37328,0.00026
5258.44499,0.00031
5256.51670,0.00050
5254.58841,0.00072
5252.66012,0.00082
5250.73183,0.00090
5248.80354,0.00088
5246.87525,0.00068
5244.94696,0.00048
5243.01868,0.00036
5241.09039,0.00037
5239.16210,0.00049
5237.23381,0.00063
5235.30552,0.00071
5233.37723,0.00066
5231.44894,0.00057
5229.52065,0.00072
5227.59236,0.00095
5225.66407,0.00081
5223.73578,0.00041
5221.80749,0.00032
5219.87920,0.00046
5217.95091,0.00054
5216.02262,0.00053
5214.09434,0.00048
5212.16605,0.00060
5210.23776,0.00082
5208.30947,0.00072
5206.38118,0.00042
5204.45289,0.00044
5202.52460,0.00068
5200.59631,0.00065
5198.66802,0.00039
5196.73973,0.00017
5194.81144,0.00000
5192.88315,-0.00012
5190.95486,0.00002
5189.02657,0.00027
5187.09828,0.00040
5185.17000,0.00040
5183.24171,0.00030
5181.31342,0.00016
5179.38513,0.00012
5177.45684,0.00013
5175.52855,0.00013
5173.60026,0.00016
5171.67197,0.00033
5169.74368,0.00048
5167.81539,0.00046
5165.88710,0.00033
5163.95881,0.00029
5162.03052,0.00042
5160.10223,0.00052
5158.17394,0.00046
5156.24566,0.00040
5154.31737,0.00038
5152.38908,0.00035
5150.46079,0.00025
5148.53250,0.00010
5146.60421,0.00009
5144.67592,0.00028
5142.74763,0.00053
5140.81934,0.00052
5138.89105,0.00026
5136.96276,0.00014
5135.03447,0.00023
5133.10618,0.00040
5131.17789,0.00054
5129.24960,0.00049
5127.32132,0.00030
5125.39303,0.00016
5123.46474,0.00012
5121.53645,0.00009
5119.60816,0.00006
5117.67987,0.00015
5115.75158,0.00024
5113.82329,0.00014
5111.89500,-0.00012
5109.96671,-0.00026
5108.03842,-0.00011
5106.11013,0.00007
5104.18184,0.00004
5102.25355,-0.00002
5100.32527,0.00000
5098.39698,0.00008
5096.46869,0.00017
5094.54040,0.00018
5092.61211,0.00032
5090.68382,0.00054
5088.75553,0.00055
5086.82724,0.00040
5084.89895,0.00035
5082.97066,0.00034
5081.04237,0.00028
5079.11408,0.00022
5077.18579,0.00019
5075.25750,0.00008
5073.32921,-0.00006
5071.40093,-0.00014
5069.47264,-0.00018
5067.54435,-0.00005
5065.61606,0.00013
5063.68777,0.00017
5061.75948,0.00005
5059.83119,-0.00000
5057.90290,0.00008
5055.97461,0.00021
5054.04632,0.00033
5052.11803,0.00040
5050.18974,0.00038
5048.26145,0.00033
5046.33316,0.00027
5044.40487,0.00011
5042.47659,-0.00005
5040.54830,-0.00003
5038.62001,0.00015
5036.69172,0.00019
5034.76343,0.00010
5032.83514,0.00007
5030.90685,0.00009
5028.97856,0.00005
5027.05027,0.00010
5025.12198,0.00011
5023.19369,-0.00007
5021.26540,-0.00016
5019.33711,-0.00006
5017.40882,-0.00005
5015.48053,-0.00017
5013.55225,-0.00025
5011.62396,-0.00022
5009.69567,-0.00008
5007.76738,0.00005
5005.83909,0.00010
5003.91080,0.00005
5001.98251,-0.00000
5000.05422,0.00000
4998.12593,0.00008
4996.19764,0.00021
4994.26935,0.00020
4992.34106,0.00000
4990.41277,-0.00013
4988.48448,-0.00009
4986.55619,-0.00004
4984.62791,-0.00005
4982.69962,-0.00002
4980.77133,0.00009
4978.84304,0.00013
4976.91475,-0.00004
4974.98646,-0.00015
4973.05817,-0.00005
4971.12988,-0.00001
4969.20159,-0.00006
4967.27330,-0.00001
4965.34501,0.00006
4963.41672,-0.00001
4961.48843,-0.00006
4959.56014,0.00002
4957.63186,0.00008
4955.70357,0.00009
4953.77528,0.00008
4951.84699,0.00004
4949.91870,0.00005
4947.99041,0.00004
4946.06212,-0.00004
4944.13383,-0.00006
4942.20554,0.00007
4940.27725,0.00014
4938.34896,0.00002
4936.42067,-0.00017
4934.49238,-0.00020
4932.56409,-0.00003
4930.63580,0.00020
4928.70752,0.00034
4926.77923,0.00034
4924.85094,0.00025
4922.92265,0.00012
4920.99436,-0.00001
4919.06607,-0.00006
4917.13778,-0.00001
4915.20949,0.00007
4913.28120,0.00007
4911.35291,-0.00001
4909.42462,0.00003
4907.49633,0.00024
4905.56804,0.00035
4903.63975,0.00035
4901.71146,0.00034
4899.78318,0.00031
4897.85489,0.00028
4895.92660,0.00020
4893.99831,0.00000
4892.07002,-0.00015
4890.14173,-0.00011
4888.21344,-0.00005
4886.28515,-0.00013
4884.35686,-0.00029
4882.42857,-0.00041
4880.50028,-0.00027
4878.57199,0.00001
4876.64370,0.00008
4874.71541,-0.00009
4872.78712,-0.00015
4870.85884,0.00002
4868.93055,0.00022
4867.00226,0.00025
4865.07397,0.00014
4863.14568,0.00003
4861.21739,-0.00005
4859.28910,-0.00012
4857.36081,-0.00012
4855.43252,-0.00006
4853.50423,-0.00001
4851.57594,0.00001
4849.64765,0.00003
4847.71936,0.00001
4845.79107,-0.00013
4843.86278,-0.00029
4841.93450,-0.00022
4840.00621,0.00005
4838.07792,0.00034
4836.14963,0.00044
4834.22134,0.00029
4832.29305,0.00007
4830.36476,-0.00003
4828.43647,-0.00003
4826.50818,-0.00006
4824.57989,-0.00016
4822.65160,-0.00018
4820.72331,-0.00010
4818.79502,-0.00001
4816.86673,0.00002
4814.93845,-0.00004
4813.01016,-0.00010
4811.08187,-0.00006
4809.15358,0.00006
4807.22529,0.00022
4805.29700,0.00033
4803.36871,0.00032
4801.44042,0.00029
4799.51213,0.00030
4797.58384,0.00033
4795.65555,0.00032
4793.72726,0.00023
4791.79897,0.00018
4789.87068,0.00031
4787.94239,0.00038
4786.01411,0.00026
4784.08582,0.00015
4782.15753,0.00017
4780.22924,0.00020
4778.30095,0.00021
4776.37266,0.00034
4774.44437,0.00047
4772.51608,0.00048
4770.58779,0.00045
4768.65950,0.00042
4766.73121,0.00035
4764.80292,0.00034
4762.87463,0.00040
4760.94634,0.00046
4759.01805,0.00046
4757.08977,0.00046
4755.16148,0.00050
4753.23319,0.00060
4751.30490,0.00068
4749.37661,0.00068
4747.44832,0.00059
4745.52003,0.00045
4743.59174,0.00028
4741.66345,0.00018
4739.73516,0.00019
4737.80687,0.00019
4735.87858,0.00017
4733.95029,0.00028
4732.02200,0.00045
4730.09371,0.00049
4728.16543,0.00034
4726.23714,0.00019
4724.30885,0.00012
4722.38056,0.00006
4720.45227,-0.00003
4718.52398,0.00000
4716.59569,0.00014
4714.66740,0.00029
4712.73911,0.00037
4710.81082,0.00039
4708.88253,0.00036
4706.95424,0.00030
4705.02595,0.00028
4703.09766,0.00025
4701.16937,0.00021
4699.24109,0.00023
4697.31280,0.00032
4695.38451,0.00035
4693.45622,0.00032
4691.52793,0.00028
4689.59964,0.00025
4687.67135,0.00018
4685.74306,0.00012
4683.81477,0.00005
4681.88648,-0.00004
4679.95819,-0.00009
4678.02990,-0.00001
4676.10161,0.00015
4674.17332,0.00031
4672.24504,0.00033
4670.31675,0.00023
4668.38846,0.00011
4666.46017,-0.00001
4664.53188,-0.00010
4662.60359,-0.00005
4660.67530,0.00009
4658.74701,0.00022
4656.81872,0.00033
4654.89043,0.00035
4652.96214,0.00022
4651.03385,0.00010
4649.10556,0.00005
4647.17727,-0.00001
4645.24898,-0.00006
4643.32070,-0.00001
4641.39241,0.00006
4639.46412,0.00005
4637.53583,0.00003
4635.60754,0.00011
4633.67925,0.00022
4631.75096,0.00025
4629.82267,0.00021
4627.89438,0.00012
4625.96609,-0.00001
4624.03780,-0.00008
4622.10951,0.00000
4620.18122,0.00004
4618.25293,-0.00001
4616.32464,0.00001
4614.39636,0.00007
4612.46807,0.00007
4610.53978,0.00004
4608.61149,0.00003
4606.68320,0.00005
4604.75491,0.00002
4602.82662,-0.00005
4600.89833,-0.00002
4598.97004,0.00008
4597.04175,0.00012
4595.11346,0.00010
4593.18517,0.00000
4591.25688,-0.00011
4589.32859,-0.00007
4587.40030,0.00004
4585.47202,0.00011
4583.54373,0.00011
4581.61544,0.00010
4579.68715,0.00013
4577.75886,0.00015
4575.83057,0.00010
4573.90228,0.00003
4571.97399,-0.00001
4570.04570,0.00000
4568.11741,-0.00003
4566.18912,-0.00010
4564.26083,-0.00007
4562.33254,0.00009
4560.40425,0.00019
4558.47596,0.00009
4556.54768,-0.00003
4554.61939,-0.00002
4552.69110,0.00005
4550.76281,0.00011
4548.83452,0.00020
4546.90623,0.00021
4544.97794,0.00006
4543.04965,-0.00001
4541.12136,0.00016
4539.19307,0.00026
4537.26478,0.00018
4535.33649,0.00003
4533.40820,-0.00003
4531.47991,0.00006
4529.55163,0.00024
4527.62334,0.00033
4525.69505,0.00030
4523.76676,0.00025
4521.83847,0.00019
4519.91018,0.00014
4517.98189,0.00013
4516.05360,0.00009
4514.12531,0.00002
4512.19702,0.00003
4510.26873,0.00007
4508.34044,0.00004
4506.41215,0.00000
4504.48386,0.00008
4502.55557,0.00025
4500.62729,0.00035
4498.69900,0.00031
4496.77071,0.00026
4494.84242,0.00023
4492.91413,0.00017
4490.98584,0.00016
4489.05755,0.00027
4487.12926,0.00036
4485.20097,0.00030
4483.27268,0.00017
4481.34439,0.00007
4479.41610,-0.00001
4477.48781,-0.00009
4475.55952,-0.00011
4473.63123,-0.00002
4471.70295,0.00011
4469.77466,0.00018
4467.84637,0.00016
4465.91808,0.00009
4463.98979,-0.00003
4462.06150,-0.00008
4460.13321,-0.00001
4458.20492,0.00008
4456.27663,0.00009
4454.34834,0.00006
4452.42005,0.00003
4450.49176,0.00005
4448.56347,0.00002
4446.63518,-0.00001
4444.70689,0.00007
4442.77861,0.00024
4440.85032,0.00038
4438.92203,0.00037
4436.99374,0.00027
4435.06545,0.00018
4433.13716,0.00019
4431.20887,0.00026
4429.28058,0.00024
4427.35229,0.00011
4425.42400,0.00005
4423.49571,0.00017
4421.56742,0.00030
4419.63913,0.00035
4417.71084,0.00032
4415.78255,0.00032
4413.85427,0.00036
4411.92598,0.00034
4409.99769,0.00023
4408.06940,0.00007
4406.14111,0.00000
4404.21282,0.00006
4402.28453,0.00014
4400.35624,0.00016
4398.42795,0.00022
4396.49966,0.00033
4394.57137,0.00036
4392.64308,0.00032
4390.71479,0.00031
4388.78650,0.00035
4386.85822,0.00038
4384.92993,0.00034
4383.00164,0.00018
4381.07335,-0.00002
4379.14506,-0.00005
4377.21677,0.00010
4375.28848,0.00022
4373.36019,0.00019
4371.43190,0.00007
4369.50361,0.00004
4367.57532,0.00014
4365.64703,0.00020
4363.71874,0.00016
4361.79045,0.00013
4359.86216,0.00019
4357.93388,0.00024
4356.00559,0.00016
4354.07730,0.00007
4352.14901,0.00007
4350.22072,0.00014
4348.29243,0.00014
4346.36414,0.00005
4344.43585,0.00002
4342.50756,0.00009
4340.57927,0.00015
4338.65098,0.00022
4336.72269,0.00032
4334.79440,0.00031
4332.86611,0.00020
4330.93782,0.00014
4329.00954,0.00016
4327.08125,0.00014
4325.15296,0.00008
4323.22467,0.00008
4321.29638,0.00014
4319.36809,0.00012
4317.43980,0.00006
4315.51151,0.00004
4313.58322,0.00013
4311.65493,0.00028
4309.72664,0.00036
4307.79835,0.00035
4305.87006,0.00031
4303.94177,0.00025
4302.01348,0.00020
4300.08520,0.00021
4298.15691,0.00021
4296.22862,0.00014
4294.30033,0.00006
4292.37204,0.00003
4290.44375,0.00007
4288.51546,0.00005
4286.58717,0.00000
4284.65888,0.00009
4282.73059,0.00025
4280.80230,0.00034
4278.87401,0.00035
4276.94572,0.00027
4275.01743,0.00017
4273.08914,0.00016
4271.16086,0.00021
4269.23257,0.00022
4267.30428,0.00015
4265.37599,0.00012
4263.44770,0.00021
4261.51941,0.00036
4259.59112,0.00038
4257.66283,0.00025
4255.73454,0.00017
4253.80625,0.00025
4251.87796,0.00034
4249.94967,0.00031
4248.02138,0.00017
4246.09309,0.00007
4244.16481,0.00010
4242.23652,0.00019
4240.30823,0.00023
4238.37994,0.00026
4236.45165,0.00031
4234.52336,0.00022
4232.59507,0.00002
4230.66678,-0.00009
4228.73849,-0.00013
4226.81020,-0.00014
4224.88191,-0.00001
4222.95362,0.00018
4221.02533,0.00029
4219.09704,0.00029
4217.16875,0.00021
4215.24047,0.00013
4213.31218,0.00012
4211.38389,0.00018
4209.45560,0.00020
4207.52731,0.00011
4205.59902,0.00004
4203.67073,0.00005
4201.74244,0.00006
4199.81415,0.00002
4197.88586,-0.00002
4195.95757,0.00001
4194.02928,0.00011
4192.10099,0.00027
4190.17270,0.00038
4188.24441,0.00031
4186.31613,0.00016
4184.38784,0.00009
4182.45955,0.00011
4180.53126,0.00009
4178.60297,0.00010
4176.67468,0.00016
4174.74639,0.00016
4172.81810,0.00007
4170.88981,0.00000
4168.96152,0.00004
4167.03323,0.00014
4165.10494,0.00017
4163.17665,0.00016
4161.24836,0.00015
4159.32007,0.00013
4157.39179,0.00006
4155.46350,0.00003
4153.53521,0.00008
4151.60692,0.00016
4149.67863,0.00021
4147.75034,0.00022
4145.82205,0.00024
4143.89376,0.00025
4141.96547,0.00021
4140.03718,0.00012
4138.10889,0.00004
4136.18060,0.00002
4134.25231,0.00006
4132.32402,0.00012
4130.39573,0.00013
4128.46745,0.00010
4126.53916,0.00010
4124.61087,0.00012
4122.68258,0.00008
4120.75429,-0.00003
4118.82600,-0.00007
4116.89771,-0.00004
4114.96942,-0.00005
4113.04113,-0.00007
4111.11284,0.00002
4109.18455,0.00012
4107.25626,0.00014
4105.32797,0.00016
4103.39968,0.00029
4101.47140,0.00041
4099.54311,0.00035
4097.61482,0.00014
4095.68653,0.00002
4093.75824,0.00004
4091.82995,0.00012
4089.90166,0.00018
4087.97337,0.00018
4086.04508,0.00009
4084.11679,0.00004
4082.18850,0.00005
4080.26021,0.00008
4078.33192,0.00009
4076.40363,0.00008
4074.47534,0.00009
4072.54706,0.00013
4070.61877,0.00017
4068.69048,0.00015
4066.76219,0.00010
4064.83390,0.00009
4062.90561,0.00003
4060.97732,-0.00007
4059.04903,-0.00007
4057.12074,-0.00006
4055.19245,-0.00012
4053.26416,-0.00014
4051.33587,-0.00004
4049.40758,0.00008
4047.47929,0.00015
4045.55100,0.00015
4043.62272,0.00011
4041.69443,0.00006
4039.76614,0.00002
4037.83785,0.00002
4035.90956,0.00008
4033.98127,0.00008
4032.05298,0.00002
4030.12469,-0.00001
4028.19640,0.00006
4026.26811,0.00015
4024.33982,0.00012
4022.41153,0.00004
4020.48324,0.00001
4018.55495,0.00001
4016.62666,0.00006
4014.69838,0.00011
4012.77009,0.00016
4010.84180,0.00021
4008.91351,0.00019
4006.98522,0.00017
4005.05693,0.00027
4003.12864,0.00040
4001.20035,0.00043
3999.27206,0.00037
3997.34377,0.00025
3995.41548,0.00011
3993.48719,0.00001
3991.55890,-0.00005
3989.63061,0.00000
3987.70232,0.00006
3985.77404,0.00004
3983.84575,-0.00000
3981.91746,0.00006
3979.98917,0.00017
3978.06088,0.00022
3976.13259,0.00025
3974.20430,0.00024
3972.27601,0.00022
3970.34772,0.00024
3968.41943,0.00021
3966.49114,0.00009
3964.56285,0.00000
3962.63456,-0.00003
3960.70627,0.00002
3958.77799,0.00011
3956.84970,0.00014
3954.92141,0.00010
3952.99312,0.00007
3951.06483,0.00009
3949.13654,0.00001
3947.20825,-0.00012
3945.27996,-0.00008
3943.35167,0.00005
3941.42338,0.00010
3939.49509,0.00011
3937.56680,0.00018
3935.63851,0.00025
3933.71022,0.00028
3931.78193,0.00022
3929.85365,0.00010
3927.92536,0.00002
3925.99707,-0.00007
3924.06878,-0.00024
3922.14049,-0.00030
3920.21220,-0.00016
3918.28391,-0.00001
3916.35562,0.00004
3914.42733,0.00002
3912.49904,-0.00000
3910.57075,0.00001
3908.64246,0.00011
3906.71417,0.00022
3904.78588,0.00023
3902.85759,0.00020
3900.92931,0.00017
3899.00102,0.00008
3897.07273,0.00006
3895.14444,0.00015
3893.21615,0.00017
3891.28786,0.00003
3889.35957,0.00000
3887.43128,0.00018
3885.50299,0.00028
3883.57470,0.00023
3881.64641,0.00031
3879.71812,0.00037
3877.78983,0.00026
3875.86154,0.00024
3873.93325,0.00023
3872.00497,0.00014
3870.07668,0.00007
3868.14839,0.00006
3866.22010,0.00010
3864.29181,0.00017
3862.36352,0.00015
3860.43523,0.00009
3858.50694,0.00006
3856.57865,0.00015
3854.65036,0.00035
3852.72207,0.00017
3850.79378,-0.00028
3848.86549,-0.00026
3846.93720,-0.00008
3845.00891,0.00000
3843.08063,-0.00001
3841.15234,0.00001
3839.22405,0.00001
3837.29576,-0.00017
3835.36747,-0.00028
3833.43918,-0.00025
3831.51089,-0.00019
3829.58260,-0.00008
3827.65431,0.00005
3825.72602,0.00008
3823.79773,0.00009
3821.86944,0.00011
3819.94115,-0.00013
3818.01286,-0.00031
3816.08458,-0.00019
3814.15629,-0.00013
3812.22800,-0.00012
3810.29971,-0.00002
3808.37142,0.00011
3806.44313,0.00010
3804.51484,-0.00002
3802.58655,-0.00014
3800.65826,-0.00026
3798.72997,-0.00021
3796.80168,-0.00003
3794.87339,-0.00000
3792.94510,-0.00003
3791.01681,-0.00002
3789.08852,0.00004
3787.16024,0.00014
3785.23195,0.00019
3783.30366,0.00018
3781.37537,0.00023
3779.44708,0.00020
3777.51879,0.00008
3775.59050,0.00015
3773.66221,0.00033
3771.73392,0.00039
3769.80563,0.00024
3767.87734,0.00012
3765.94905,0.00017
3764.02076,0.00022
3762.09247,0.00024
3760.16418,0.00016
3758.23590,-0.00009
3756.30761,-0.00013
3754.37932,0.00013
3752.45103,0.00040
3750.52274,0.00029
3748.59445,-0.00008
3746.66616,-0.00009
3744.73787,0.00003
3742.80958,-0.00015
3740.88129,-0.00034
3738.95300,-0.00034
3737.02471,-0.00033
3735.09642,-0.00033
3733.16813,-0.00037
3731.23984,-0.00042
3729.31156,-0.00029
3727.38327,-0.00008
3725.45498,-0.00001
3723.52669,-0.00000
3721.59840,0.00005
3719.67011,0.00006
3717.74182,0.00007
3715.81353,0.00010
3713.88524,0.00014
3711.95695,0.00019
3710.02866,0.00011
3708.10037,0.00001
3706.17208,0.00007
3704.24379,0.00023
3702.31551,0.00033
3700.38722,0.00028
3698.45893,0.00022
3696.53064,0.00016
3694.60235,0.00011
3692.67406,0.00013
3690.74577,0.00012
3688.81748,0.00000
3686.88919,0.00001
3684.96090,0.00015
3683.03261,0.00028
3681.10432,0.00040
3679.17603,0.00049
3677.24774,0.00062
3675.31945,0.00067
3673.39117,0.00041
3671.46288,0.00027
3669.53459,0.00036
3667.60630,0.00036
3665.67801,0.00034
3663.74972,0.00036
3661.82143,0.00037
3659.89314,0.00039
3657.96485,0.00045
3656.03656,0.00051
3654.10827,0.00056
3652.17998,0.00066
3650.25169,0.00068
3648.32340,0.00033
3646.39511,-0.00000
3644.46683,0.00001
3642.53854,0.00013
3640.61025,0.00019
3638.68196,0.00017
3636.75367,0.00015
3634.82538,0.00021
3632.89709,0.00037
3630.96880,0.00056
3629.04051,0.00053
3627.11222,0.00011
3625.18393,-0.00004
3623.25564,0.00005
3621.32735,0.00011
3619.39906,0.00005
3617.47077,-0.00004
3615.54249,0.00001
3613.61420,0.00020
3611.68591,0.00042
3609.75762,0.00054
3607.82933,0.00045
3605.90104,0.00020
3603.97275,0.00007
3602.04446,-0.00002
3600.11617,-0.00016
3598.18788,-0.00010
3596.25959,0.00022
3594.33130,0.00044
3592.40301,0.00035
3590.47472,0.00026
3588.54643,0.00027
3586.61815,0.00016
3584.68986,0.00000
3582.76157,0.00005
3580.83328,0.00017
3578.90499,0.00026
3576.97670,0.00032
3575.04841,0.00039
3573.12012,0.00041
3571.19183,0.00041
3569.26354,0.00046
3567.33525,0.00040
3565.40696,0.00014
3563.47867,-0.00005
3561.55038,0.00002
3559.62210,0.00021
3557.69381,0.00042
3555.76552,0.00057
3553.83723,0.00061
3551.90894,0.00050
3549.98065,0.00032
3548.05236,0.00024
3546.12407,0.00012
3544.19578,-0.00005
3542.26749,-0.00010
3540.33920,0.00004
3538.41091,0.00026
3536.48262,0.00041
3534.55433,0.00046
3532.62604,0.00048
3530.69776,0.00049
3528.76947,0.00044
3526.84118,0.00036
3524.91289,0.00025
3522.98460,0.00019
3521.05631,0.00024
3519.12802,0.00032
3517.19973,0.00037
3515.27144,0.00033
3513.34315,0.00028
3511.41486,0.00024
3509.48657,0.00019
3507.55828,0.00021
3505.62999,0.00028
3503.70170,0.00024
3501.77342,0.00015
3499.84513,0.00023
3497.91684,0.00035
3495.98855,0.00031
3494.06026,0.00021
3492.13197,0.00021
3490.20368,0.00032
3488.27539,0.00038
3486.34710,0.00040
3484.41881,0.00045
3482.49052,0.00046
3480.56223,0.00035
3478.63394,0.00027
3476.70565,0.00030
3474.77736,0.00034
3472.84908,0.00037
3470.92079,0.00037
3468.99250,0.00037
3467.06421,0.00034
3465.13592,0.00034
3463.20763,0.00038
3461.27934,0.00037
3459.35105,0.00035
3457.42276,0.00037
3455.49447,0.00044
3453.56618,0.00050
3451.63789,0.00051
3449.70960,0.00053
3447.78131,0.00050
3445.85302,0.00036
3443.92474,0.00030
3441.99645,0.00041
3440.06816,0.00043
3438.13987,0.00024
3436.21158,0.00010
3434.28329,0.00007
3432.35500,0.00011
3430.42671,0.00013
3428.49842,0.00013
3426.57013,0.00011
3424.64184,0.00018
3422.71355,0.00028
3420.78526,0.00027
3418.85697,0.00025
3416.92869,0.00023
3415.00040,0.00019
3413.07211,0.00020
3411.14382,0.00031
3409.21553,0.00038
3407.28724,0.00047
3405.35895,0.00057
3403.43066,0.00043
3401.50237,0.00018
3399.57408,0.00013
3397.64579,0.00025
3395.71750,0.00027
3393.78921,0.00014
3391.86092,0.00003
3389.93263,0.00004
3388.00435,0.00016
3386.07606,0.00028
3384.14777,0.00040
3382.21948,0.00042
3380.29119,0.00028
3378.36290,0.00013
3376.43461,0.00013
3374.50632,0.00025
3372.57803,0.00032
3370.64974,0.00026
3368.72145,0.00011
3366.79316,0.00003
3364.86487,0.00006
3362.93658,0.00016
3361.00829,0.00026
3359.08001,0.00030
3357.15172,0.00036
3355.22343,0.00038
3353.29514,0.00031
3351.36685,0.00021
3349.43856,0.00020
3347.51027,0.00028
3345.58198,0.00029
3343.65369,0.00025
3341.72540,0.00023
3339.79711,0.00024
3337.86882,0.00019
3335.94053,0.00014
3334.01224,0.00021
3332.08395,0.00036
3330.15567,0.00043
3328.22738,0.00031
3326.29909,0.00016
3324.37080,0.00019
3322.44251,0.00033
3320.51422,0.00042
3318.58593,0.00039
3316.65764,0.00033
3314.72935,0.00026
3312.80106,0.00024
3310.87277,0.00023
3308.94448,0.00016
3307.01619,0.00009
3305.08790,0.00003
3303.15961,0.00002
3301.23133,0.00008
3299.30304,0.00019
3297.37475,0.00026
3295.44646,0.00028
3293.51817,0.00028
3291.58988,0.00028
3289.66159,0.00032
3287.73330,0.00034
3285.80501,0.00039
3283.87672,0.00043
3281.94843,0.00044
3280.02014,0.00041
3278.09185,0.00035
3276.16356,0.00030
3274.23528,0.00024
3272.30699,0.00017
3270.37870,0.00013
3268.45041,0.00019
3266.52212,0.00025
3264.59383,0.00026
3262.66554,0.00029
3260.73725,0.00033
3258.80896,0.00037
3256.88067,0.00039
3254.95238,0.00037
3253.02409,0.00034
3251.09580,0.00027
3249.16751,0.00018
3247.23922,0.00009
3245.31094,0.00007
3243.38265,0.00007
3241.45436,0.00015
3239.52607,0.00029
3237.59778,0.00038
3235.66949,0.00030
3233.74120,0.00018
3231.81291,0.00023
3229.88462,0.00037
3227.95633,0.00049
3226.02804,0.00048
3224.09975,0.00036
3222.17146,0.00027
3220.24317,0.00030
3218.31488,0.00043
3216.38660,0.00054
3214.45831,0.00063
3212.53002,0.00064
3210.60173,0.00051
3208.67344,0.00033
3206.74515,0.00027
3204.81686,0.00036
3202.88857,0.00044
3200.96028,0.00049
3199.03199,0.00050
3197.10370,0.00050
3195.17541,0.00046
3193.24712,0.00040
3191.31883,0.00044
3189.39054,0.00052
3187.46226,0.00058
3185.53397,0.00054
3183.60568,0.00049
3181.67739,0.00045
3179.74910,0.00045
3177.82081,0.00046
3175.89252,0.00044
3173.96423,0.00043
3172.03594,0.00048
3170.10765,0.00056
3168.17936,0.00055
3166.25107,0.00047
3164.32278,0.00046
3162.39449,0.00052
3160.46620,0.00058
3158.53792,0.00060
3156.60963,0.00057
3154.68134,0.00047
3152.75305,0.00039
3150.82476,0.00040
3148.89647,0.00048
3146.96818,0.00055
3145.03989,0.00056
3143.11160,0.00055
3141.18331,0.00051
3139.25502,0.00052
3137.32673,0.00060
3135.39844,0.00062
3133.47015,0.00057
3131.54187,0.00054
3129.61358,0.00056
3127.68529,0.00060
3125.75700,0.00070
3123.82871,0.00076
3121.90042,0.00074
3119.97213,0.00062
3118.04384,0.00048
3116.11555,0.00044
3114.18726,0.00047
3112.25897,0.00055
3110.33068,0.00064
3108.40239,0.00068
3106.47410,0.00070
3104.54581,0.00074
3102.61753,0.00077
3100.68924,0.00071
3098.76095,0.00060
3096.83266,0.00056
3094.90437,0.00064
3092.97608,0.00075
3091.04779,0.00084
3089.11950,0.00091
3087.19121,0.00090
3085.26292,0.00079
3083.33463,0.00073
3081.40634,0.00072
3079.47805,0.00069
3077.54976,0.00070
3075.62147,0.00081
3073.69319,0.00085
3071.76490,0.00087
3069.83661,0.00093
3067.90832,0.00100
3065.98003,0.00099
3064.05174,0.00100
3062.12345,0.00111
3060.19516,0.00117
3058.26687,0.00113
3056.33858,0.00104
3054.41029,0.00103
3052.48200,0.00107
3050.55371,0.00109
3048.62542,0.00110
3046.69713,0.00110
3044.76885,0.00110
3042.84056,0.00106
3040.91227,0.00105
3038.98398,0.00112
3037.05569,0.00124
3035.12740,0.00125
3033.19911,0.00118
3031.27082,0.00118
3029.34253,0.00120
3027.41424,0.00125
3025.48595,0.00130
3023.55766,0.00139
3021.62937,0.00144
3019.70108,0.00140
3017.77279,0.00132
3015.84451,0.00125
3013.91622,0.00125
3011.98793,0.00128
3010.05964,0.00134
3008.13135,0.00143
3006.20306,0.00154
3004.27477,0.00163
3002.34648,0.00160
3000.41819,0.00155
2998.48990,0.00154
2996.56161,0.00156
2994.63332,0.00154
2992.70503,0.00153
2990.77674,0.00157
2988.84846,0.00162
2986.92017,0.00166
2984.99188,0.00166
2983.06359,0.00167
2981.13530,0.00169
2979.20701,0.00175
2977.27872,0.00180
2975.35043,0.00184
2973.42214,0.00192
2971.49385,0.00200
2969.56556,0.00198
2967.63727,0.00188
2965.70898,0.00185
2963.78069,0.00190
2961.85240,0.00199
2959.92412,0.00203
2957.99583,0.00198
2956.06754,0.00193
2954.13925,0.00193
2952.21096,0.00201
2950.28267,0.00211
2948.35438,0.00215
2946.42609,0.00212
2944.49780,0.00210
2942.56951,0.00215
2940.64122,0.00223
2938.71293,0.00227
2936.78464,0.00225
2934.85635,0.00229
2932.92806,0.00237
2930.99978,0.00236
2929.07149,0.00228
2927.14320,0.00225
2925.21491,0.00233
2923.28662,0.00241
2921.35833,0.00242
2919.43004,0.00232
2917.50175,0.00219
2915.57346,0.00216
2913.64517,0.00220
2911.71688,0.00226
2909.78859,0.00231
2907.86030,0.00238
2905.93201,0.00244
2904.00372,0.00247
2902.07544,0.00249
2900.14715,0.00252
2898.21886,0.00254
2896.29057,0.00251
2894.36228,0.00246
2892.43399,0.00240
2890.50570,0.00235
2888.57741,0.00237
2886.64912,0.00243
2884.72083,0.00246
2882.79254,0.00249
2880.86425,0.00255
2878.93596,0.00257
2877.00767,0.00257
2875.07938,0.00257
2873.15110,0.00259
2871.22281,0.00264
2869.29452,0.00267
2867.36623,0.00272
2865.43794,0.00275
2863.50965,0.00276
2861.58136,0.00271
2859.65307,0.00265
2857.72478,0.00264
2855.79649,0.00267
2853.86820,0.00275
2851.93991,0.00279
2850.01162,0.00279
2848.08333,0.00281
2846.15505,0.00288
2844.22676,0.00296
2842.29847,0.00301
2840.37018,0.00303
2838.44189,0.00295
2836.51360,0.00288
2834.58531,0.00290
2832.65702,0.00295
2830.72873,0.00301
2828.80044,0.00303
2826.87215,0.00299
2824.94386,0.00295
2823.01557,0.00297
2821.08728,0.00299
2819.15899,0.00299
2817.23071,0.00301
2815.30242,0.00305
2813.37413,0.00309
2811.44584,0.00308
2809.51755,0.00309
2807.58926,0.00315
2805.66097,0.00319
2803.73268,0.00317
2801.80439,0.00314
2799.87610,0.00315
2797.94781,0.00315
2796.01952,0.00319
2794.09123,0.00323
2792.16294,0.00329
2790.23465,0.00332
2788.30637,0.00336
2786.37808,0.00343
2784.44979,0.00349
2782.52150,0.00353
2780.59321,0.00351
2778.66492,0.00345
2776.73663,0.00341
2774.80834,0.00339
2772.88005,0.00341
2770.95176,0.00342
2769.02347,0.00346
2767.09518,0.00347
2765.16689,0.00349
2763.23860,0.00354
2761.31031,0.00362
2759.38203,0.00367
2757.45374,0.00365
2755.52545,0.00363
2753.59716,0.00365
2751.66887,0.00369
2749.74058,0.00368
2747.81229,0.00366
2745.88400,0.00366
2743.95571,0.00365
2742.02742,0.00365
2740.09913,0.00367
2738.17084,0.00374
2736.24255,0.00379
2734.31426,0.00385
2732.38597,0.00392
2730.45769,0.00392
2728.52940,0.00387
2726.60111,0.00381
2724.67282,0.00379
2722.74453,0.00380
2720.81624,0.00384
2718.88795,0.00393
2716.95966,0.00397
2715.03137,0.00394
2713.10308,0.00392
2711.17479,0.00396
2709.24650,0.00397
2707.31821,0.00397
2705.38992,0.00402
2703.46164,0.00411
2701.53335,0.00416
2699.60506,0.00416
2697.67677,0.00417
2695.74848,0.00416
2693.82019,0.00418
2691.89190,0.00420
2689.96361,0.00424
2688.03532,0.00425
2686.10703,0.00423
2684.17874,0.00421
2682.25045,0.00418
2680.32216,0.00419
2678.39387,0.00422
2676.46558,0.00426
2674.53730,0.00432
2672.60901,0.00440
2670.68072,0.00447
2668.75243,0.00446
2666.82414,0.00443
2664.89585,0.00438
2662.96756,0.00436
2661.03927,0.00441
2659.11098,0.00448
2657.18269,0.00449
2655.25440,0.00446
2653.32611,0.00450
2651.39782,0.00459
2649.46953,0.00468
2647.54124,0.00473
2645.61296,0.00474
2643.68467,0.00471
2641.75638,0.00467
2639.82809,0.00470
2637.89980,0.00472
2635.97151,0.00470
2634.04322,0.00471
2632.11493,0.00479
2630.18664,0.00485
2628.25835,0.00485
2626.33006,0.00486
2624.40177,0.00487
2622.47348,0.00490
2620.54519,0.00494
2618.61690,0.00495
2616.68862,0.00489
2614.76033,0.00485
2612.83204,0.00491
2610.90375,0.00498
2608.97546,0.00502
2607.04717,0.00503
2605.11888,0.00505
2603.19059,0.00510
2601.26230,0.00516
2599.33401,0.00520
2597.40572,0.00520
2595.47743,0.00518
2593.54914,0.00517
2591.62085,0.00520
2589.69256,0.00521
2587.76428,0.00523
2585.83599,0.00528
2583.90770,0.00528
2581.97941,0.00524
2580.05112,0.00520
2578.12283,0.00524
2576.19454,0.00532
2574.26625,0.00538
2572.33796,0.00536
2570.40967,0.00529
2568.48138,0.00532
2566.55309,0.00539
2564.62480,0.00542
2562.69651,0.00538
2560.76823,0.00540
2558.83994,0.00546
2556.91165,0.00549
2554.98336,0.00551
2553.05507,0.00552
2551.12678,0.00552
2549.19849,0.00553
2547.27020,0.00557
2545.34191,0.00563
2543.41362,0.00566
2541.48533,0.00567
2539.55704,0.00567
2537.62875,0.00570
2535.70046,0.00570
2533.77217,0.00570
2531.84389,0.00573
2529.91560,0.00579
2527.98731,0.00587
2526.05902,0.00592
2524.13073,0.00592
2522.20244,0.00587
2520.27415,0.00588
2518.34586,0.00588
2516.41757,0.00586
2514.48928,0.00589
2512.56099,0.00596
2510.63270,0.00602
2508.70441,0.00602
2506.77612,0.00599
2504.84783,0.00597
2502.91955,0.00599
2500.99126,0.00602
2499.06297,0.00602
2497.13468,0.00605
2495.20639,0.00609
2493.27810,0.00618
2491.34981,0.00624
2489.42152,0.00622
2487.49323,0.00617
2485.56494,0.00614
2483.63665,0.00620
2481.70836,0.00626
2479.78007,0.00628
2477.85178,0.00628
2475.92349,0.00633
2473.99521,0.00640
2472.06692,0.00645
2470.13863,0.00647
2468.21034,0.00643
2466.28205,0.00641
2464.35376,0.00641
2462.42547,0.00642
2460.49718,0.00642
2458.56889,0.00644
2456.64060,0.00651
2454.71231,0.00656
2452.78402,0.00655
2450.85573,0.00650
2448.92744,0.00649
2446.99915,0.00653
2445.07087,0.00658
2443.14258,0.00661
2441.21429,0.00665
2439.28600,0.00673
2437.35771,0.00680
2435.42942,0.00680
2433.50113,0.00672
2431.57284,0.00669
2429.64455,0.00673
2427.71626,0.00680
2425.78797,0.00685
2423.85968,0.00685
2421.93139,0.00682
2420.00310,0.00683
2418.07482,0.00690
2416.14653,0.00692
2414.21824,0.00686
2412.28995,0.00684
2410.36166,0.00687
2408.43337,0.00695
2406.50508,0.00702
2404.57679,0.00707
2402.64850,0.00710
2400.72021,0.00710
2398.79192,0.00709
2396.86363,0.00703
2394.93534,0.00701
2393.00705,0.00705
2391.07876,0.00711
2389.15048,0.00713
2387.22219,0.00707
2385.29390,0.00692
2383.36561,0.00669
2381.43732,0.00636
2379.50903,0.00589
2377.58074,0.00542
2375.65245,0.00495
2373.72416,0.00436
2371.79587,0.00361
2369.86758,0.00287
2367.93929,0.00226
2366.01100,0.00162
2364.08271,0.00092
2362.15442,0.00029
2360.22614,0.00000
2358.29785,0.00002
2356.36956,0.00029
2354.44127,0.00089
2352.51298,0.00180
2350.58469,0.00273
2348.65640,0.00330
2346.72811,0.00325
2344.79982,0.00256
2342.87153,0.00190
2340.94324,0.00168
2339.01495,0.00175
2337.08666,0.00192
2335.15837,0.00208
2333.23008,0.00225
2331.30180,0.00237
2329.37351,0.00237
2327.44522,0.00240
2325.51693,0.00249
2323.58864,0.00260
2321.66035,0.00285
2319.73206,0.00333
2317.80377,0.00383
2315.87548,0.00416
2313.94719,0.00440
2312.01890,0.00461
2310.09061,0.00474
2308.16232,0.00483
2306.23403,0.00499
2304.30574,0.00522
2302.37746,0.00541
2300.44917,0.00553
2298.52088,0.00558
2296.59259,0.00560
2294.66430,0.00571
2292.73601,0.00586
2290.80772,0.00600
2288.87943,0.00610
2286.95114,0.00614
2285.02285,0.00617
2283.09456,0.00618
2281.16627,0.00614
2279.23798,0.00604
2277.30969,0.00600
2275.38141,0.00604
2273.45312,0.00610
2271.52483,0.00614
2269.59654,0.00615
2267.66825,0.00613
2265.73996,0.00608
2263.81167,0.00601
2261.88338,0.00595
2259.95509,0.00593
2258.02680,0.00594
2256.09851,0.00601
2254.17022,0.00606
2252.24193,0.00602
2250.31364,0.00595
2248.38535,0.00591
2246.45707,0.00592
2244.52878,0.00590
2242.60049,0.00584
2240.67220,0.00579
2238.74391,0.00578
2236.81562,0.00581
2234.88733,0.00584
2232.95904,0.00589
2231.03075,0.00594
2229.10246,0.00591
2227.17417,0.00583
2225.24588,0.00574
2223.31759,0.00571
2221.38930,0.00574
2219.46101,0.00571
2217.53273,0.00565
2215.60444,0.00561
2213.67615,0.00561
2211.74786,0.00560
2209.81957,0.00558
2207.89128,0.00559
2205.96299,0.00559
2204.03470,0.00559
2202.10641,0.00559
2200.17812,0.00560
2198.24983,0.00559
2196.32154,0.00555
2194.39325,0.00553
2192.46496,0.00556
2190.53667,0.00559
2188.60839,0.00557
2186.68010,0.00556
2184.75181,0.00555
2182.82352,0.00552
2180.89523,0.00548
2178.96694,0.00544
2177.03865,0.00539
2175.11036,0.00539
2173.18207,0.00545
2171.25378,0.00548
2169.32549,0.00548
2167.39720,0.00547
2165.46891,0.00545
2163.54062,0.00543
2161.61234,0.00542
2159.68405,0.00542
2157.75576,0.00537
2155.82747,0.00532
2153.89918,0.00532
2151.97089,0.00533
2150.04260,0.00533
2148.11431,0.00533
2146.18602,0.00534
2144.25773,0.00533
2142.32944,0.00531
2140.40115,0.00533
2138.47286,0.00534
2136.54457,0.00529
2134.61628,0.00526
2132.68800,0.00525
2130.75971,0.00525
2128.83142,0.00523
2126.90313,0.00520
2124.97484,0.00516
2123.04655,0.00516
2121.11826,0.00517
2119.18997,0.00515
2117.26168,0.00512
2115.33339,0.00511
2113.40510,0.00509
2111.47681,0.00512
2109.54852,0.00514
2107.62023,0.00512
2105.69194,0.00508
2103.76366,0.00504
2101.83537,0.00504
2099.90708,0.00506
2097.97879,0.00510
2096.05050,0.00512
2094.12221,0.00510
2092.19392,0.00509
2090.26563,0.00510
2088.33734,0.00511
2086.40905,0.00510
2084.48076,0.00509
2082.55247,0.00511
2080.62418,0.00511
2078.69589,0.00509
2076.76760,0.00506
2074.83932,0.00506
2072.91103,0.00510
2070.98274,0.00512
2069.05445,0.00508
2067.12616,0.00504
2065.19787,0.00503
2063.26958,0.00503
2061.34129,0.00502
2059.41300,0.00500
2057.48471,0.00498
2055.55642,0.00494
2053.62813,0.00494
2051.69984,0.00495
2049.77155,0.00495
2047.84326,0.00496
2045.91498,0.00495
2043.98669,0.00496
2042.05840,0.00501
2040.13011,0.00503
2038.20182,0.00498
2036.27353,0.00494
2034.34524,0.00496
2032.41695,0.00497
2030.48866,0.00497
2028.56037,0.00498
2026.63208,0.00497
2024.70379,0.00494
2022.77550,0.00495
2020.84721,0.00497
2018.91893,0.00493
2016.99064,0.00488
2015.06235,0.00492
2013.13406,0.00496
2011.20577,0.00493
2009.27748,0.00489
2007.34919,0.00494
2005.42090,0.00504
2003.49261,0.00508
2001.56432,0.00503
1999.63603,0.00495
1997.70774,0.00489
1995.77945,0.00489
1993.85116,0.00490
1991.92287,0.00488
1989.99459,0.00489
1988.06630,0.00495
1986.13801,0.00494
1984.20972,0.00488
1982.28143,0.00489
1980.35314,0.00494
1978.42485,0.00496
1976.49656,0.00499
1974.56827,0.00501
1972.63998,0.00500
1970.71169,0.00497
1968.78340,0.00497
1966.85511,0.00495
1964.92682,0.00492
1962.99853,0.00496
1961.07025,0.00502
1959.14196,0.00507
1957.21367,0.00513
1955.28538,0.00512
1953.35709,0.00507
1951.42880,0.00504
1949.50051,0.00505
1947.57222,0.00506
1945.64393,0.00501
1943.71564,0.00493
1941.78735,0.00488
1939.85906,0.00496
1937.93077,0.00512
1936.00248,0.00520
1934.07419,0.00517
1932.14591,0.00509
1930.21762,0.00506
1928.28933,0.00509
1926.36104,0.00517
1924.43275,0.00522
1922.50446,0.00517
1920.57617,0.00508
1918.64788,0.00506
1916.71959,0.00503
1914.79130,0.00506
1912.86301,0.00514
1910.93472,0.00518
1909.00643,0.00518
1907.07814,0.00517
1905.14985,0.00521
1903.22157,0.00525
1901.29328,0.00526
1899.36499,0.00527
1897.43670,0.00528
1895.50841,0.00528
1893.58012,0.00529
1891.65183,0.00533
1889.72354,0.00527
1887.79525,0.00516
1885.86696,0.00518
1883.93867,0.00523
1882.01038,0.00529
1880.08209,0.00533
1878.15380,0.00530
1876.22552,0.00525
1874.29723,0.00528
1872.36894,0.00535
1870.44065,0.00540
1868.51236,0.00525
1866.58407,0.00511
1864.65578,0.00520
1862.72749,0.00532
1860.79920,0.00536
1858.87091,0.00536
1856.94262,0.00537
1855.01433,0.00540
1853.08604,0.00543
1851.15775,0.00553
1849.22946,0.00561
1847.30118,0.00563
1845.37289,0.00553
1843.44460,0.00527
1841.51631,0.00522
1839.58802,0.00543
1837.65973,0.00559
1835.73144,0.00562
1833.80315,0.00565
1831.87486,0.00570
1829.94657,0.00556
1828.01828,0.00534
1826.08999,0.00530
1824.16170,0.00532
1822.23341,0.00543
1820.30512,0.00561
1818.37684,0.00571
1816.44855,0.00572
1814.52026,0.00573
1812.59197,0.00575
1810.66368,0.00571
1808.73539,0.00568
1806.80710,0.00567
1804.87881,0.00570
1802.95052,0.00577
1801.02223,0.00575
1799.09394,0.00567
1797.16565,0.00568
1795.23736,0.00578
1793.30907,0.00580
1791.38078,0.00558
1789.45250,0.00554
1787.52421,0.00574
1785.59592,0.00586
1783.66763,0.00585
1781.73934,0.00579
1779.81105,0.00574
1777.88276,0.00581
1775.95447,0.00597
1774.02618,0.00603
1772.09789,0.00586
1770.16960,0.00578
1768.24131,0.00592
1766.31302,0.00604
1764.38473,0.00614
1762.45644,0.00613
1760.52816,0.00600
1758.59987,0.00601
1756.67158,0.00602
1754.74329,0.00604
1752.81500,0.00620
1750.88671,0.00628
1748.95842,0.00603
1747.03013,0.00581
1745.10184,0.00586
1743.17355,0.00602
1741.24526,0.00616
1739.31697,0.00624
1737.38868,0.00637
1735.46039,0.00653
1733.53211,0.00621
1731.60382,0.00583
1729.67553,0.00596
1727.74724,0.00625
1725.81895,0.00651
1723.89066,0.00663
1721.96237,0.00670
1720.03408,0.00687
1718.10579,0.00690
1716.17750,0.00642
1714.24921,0.00612
1712.32092,0.00625
1710.39263,0.00649
1708.46434,0.00670
1706.53605,0.00674
1704.60777,0.00659
1702.67948,0.00663
1700.75119,0.00671
1698.82290,0.00641
1696.89461,0.00615
1694.96632,0.00613
1693.03803,0.00632
1691.10974,0.00657
1689.18145,0.00669
1687.25316,0.00679
1685.32487,0.00682
1683.39658,0.00640
1681.46829,0.00623
1679.54000,0.00646
1677.61171,0.00676
1675.68343,0.00694
1673.75514,0.00690
1671.82685,0.00687
1669.89856,0.00669
1667.97027,0.00637
1666.04198,0.00647
1664.11369,0.00664
1662.18540,0.00655
1660.25711,0.00659
1658.32882,0.00689
1656.40053,0.00728
1654.47224,0.00749
1652.54395,0.00682
1650.61566,0.00649
1648.68737,0.00673
1646.75909,0.00655
1644.83080,0.00634
1642.90251,0.00668
1640.97422,0.00705
1639.04593,0.00728
1637.11764,0.00728
1635.18935,0.00681
1633.26106,0.00665
1631.33277,0.00697
1629.40448,0.00722
1627.47619,0.00728
1625.54790,0.00731
1623.61961,0.00723
1621.69132,0.00707
1619.76303,0.00721
1617.83475,0.00736
1615.90646,0.00709
1613.97817,0.00698
1612.04988,0.00722
1610.12159,0.00738
1608.19330,0.00736
1606.26501,0.00734
1604.33672,0.00735
1602.40843,0.00734
1600.48014,0.00737
1598.55185,0.00744
1596.62356,0.00742
1594.69527,0.00735
1592.76698,0.00738
1590.83870,0.00743
1588.91041,0.00742
1586.98212,0.00741
1585.05383,0.00747
1583.12554,0.00755
1581.19725,0.00763
1579.26896,0.00777
1577.34067,0.00777
1575.41238,0.00734
1573.48409,0.00721
1571.55580,0.00740
1569.62751,0.00730
1567.69922,0.00709
1565.77093,0.00719
1563.84264,0.00741
1561.91436,0.00776
1559.98607,0.00794
1558.05778,0.00686
1556.12949,0.00644
1554.20120,0.00688
1552.27291,0.00721
1550.34462,0.00732
1548.41633,0.00745
1546.48804,0.00776
1544.55975,0.00792
1542.63146,0.00762
1540.70317,0.00696
1538.77488,0.00660
1536.84659,0.00700
1534.91830,0.00737
1532.99002,0.00733
1531.06173,0.00730
1529.13344,0.00751
1527.20515,0.00761
1525.27686,0.00759
1523.34857,0.00755
1521.42028,0.00731
1519.49199,0.00726
1517.56370,0.00746
1515.63541,0.00746
1513.70712,0.00746
1511.77883,0.00764
1509.85054,0.00788
1507.92225,0.00776
1505.99396,0.00685
1504.06568,0.00681
1502.13739,0.00727
1500.20910,0.00751
1498.28081,0.00734
1496.35252,0.00708
1494.42423,0.00732
1492.49594,0.00774
1490.56765,0.00782
1488.63936,0.00743
1486.71107,0.00728
1484.78278,0.00751
1482.85449,0.00773
1480.92620,0.00783
1478.99791,0.00791
1477.06962,0.00795
1475.14134,0.00783
1473.21305,0.00757
1471.28476,0.00742
1469.35647,0.00761
1467.42818,0.00785
1465.49989,0.00784
1463.57160,0.00775
1461.64331,0.00791
1459.71502,0.00809
1457.78673,0.00772
1455.85844,0.00713
1453.93015,0.00734
1452.00186,0.00769
1450.07357,0.00782
1448.14529,0.00774
1446.21700,0.00767
1444.28871,0.00779
1442.36042,0.00789
1440.43213,0.00788
1438.50384,0.00780
1436.57555,0.00756
1434.64726,0.00751
1432.71897,0.00773
1430.79068,0.00785
1428.86239,0.00778
1426.93410,0.00777
1425.00581,0.00780
1423.07752,0.00775
1421.14923,0.00771
1419.22095,0.00755
1417.29266,0.00734
1415.36437,0.00747
1413.43608,0.00767
1411.50779,0.00774
1409.57950,0.00772
1407.65121,0.00774
1405.72292,0.00777
1403.79463,0.00775
1401.86634,0.00776
1399.93805,0.00773
1398.00976,0.00754
1396.08147,0.00730
1394.15318,0.00715
1392.22489,0.00722
1390.29661,0.00741
1388.36832,0.00742
1386.44003,0.00724
1384.51174,0.00720
1382.58345,0.00730
1380.65516,0.00731
1378.72687,0.00724
1376.79858,0.00722
1374.87029,0.00718
1372.94200,0.00718
1371.01371,0.00725
1369.08542,0.00729
1367.15713,0.00734
1365.22884,0.00745
1363.30055,0.00747
1361.37227,0.00739
1359.44398,0.00744
1357.51569,0.00765
1355.58740,0.00787
1353.65911,0.00798
1351.73082,0.00802
1349.80253,0.00806
1347.87424,0.00814
1345.94595,0.00823
1344.01766,0.00833
1342.08937,0.00841
1340.16108,0.00837
1338.23279,0.00831
1336.30450,0.00835
1334.37621,0.00833
1332.44793,0.00820
1330.51964,0.00804
1328.59135,0.00792
1326.66306,0.00779
1324.73477,0.00766
1322.80648,0.00753
1320.87819,0.00737
1318.94990,0.00718
1317.02161,0.00700
1315.09332,0.00683
1313.16503,0.00661
1311.23674,0.00644
1309.30845,0.00638
1307.38016,0.00630
1305.45188,0.00614
1303.52359,0.00597
1301.59530,0.00580
1299.66701,0.00563
1297.73872,0.00549
1295.81043,0.00538
1293.88214,0.00528
1291.95385,0.00514
1290.02556,0.00499
1288.09727,0.00483
1286.16898,0.00473
1284.24069,0.00466
1282.31240,0.00454
1280.38411,0.00438
1278.45582,0.00422
1276.52754,0.00412
1274.59925,0.00409
1272.67096,0.00406
1270.74267,0.00398
1268.81438,0.00384
1266.88609,0.00369
1264.95780,0.00363
1263.02951,0.00365
1261.10122,0.00370
1259.17293,0.00367
1257.24464,0.00356
1255.31635,0.00345
1253.38806,0.00340
1251.45977,0.00342
1249.53148,0.00344
1247.60320,0.00340
1245.67491,0.00330
1243.74662,0.00320
1241.81833,0.00314
1239.89004,0.00311
1237.96175,0.00311
1236.03346,0.00314
1234.10517,0.00316
1232.17688,0.00320
1230.24859,0.00318
1228.32030,0.00311
1226.39201,0.00306
1224.46372,0.00307
1222.53543,0.00313
1220.60714,0.00314
1218.67886,0.00301
1216.75057,0.00287
1214.82228,0.00281
1212.89399,0.00279
1210.96570,0.00276
1209.03741,0.00277
1207.10912,0.00275
1205.18083,0.00270
1203.25254,0.00270
1201.32425,0.00269
1199.39596,0.00260
1197.46767,0.00252
1195.53938,0.00254
1193.61109,0.00259
1191.68280,0.00261
1189.75452,0.00261
1187.82623,0.00263
1185.89794,0.00262
1183.96965,0.00264
1182.04136,0.00262
1180.11307,0.00259
1178.18478,0.00259
1176.25649,0.00256
1174.32820,0.00253
1172.39991,0.00250
1170.47162,0.00245
1168.54333,0.00243
1166.61504,0.00239
1164.68675,0.00233
1162.75847,0.00226
1160.83018,0.00223
1158.90189,0.00221
1156.97360,0.00214
1155.04531,0.00202
1153.11702,0.00191
1151.18873,0.00186
1149.26044,0.00187
1147.33215,0.00188
1145.40386,0.00192
1143.47557,0.00197
1141.54728,0.00199
1139.61899,0.00204
1137.69070,0.00215
1135.76241,0.00240
1133.83413,0.00280
1131.90584,0.00330
1129.97755,0.00383
1128.04926,0.00448
1126.12097,0.00534
1124.19268,0.00634
1122.26439,0.00734
1120.33610,0.00832
1118.40781,0.00926
1116.47952,0.01012
1114.55123,0.01085
1112.62294,0.01143
1110.69465,0.01180
1108.76636,0.01196
1106.83807,0.01194
1104.90979,0.01172
1102.98150,0.01132
1101.05321,0.01078
1099.12492,0.01013
1097.19663,0.00940
1095.26834,0.00854
1093.34005,0.00762
1091.41176,0.00672
1089.48347,0.00587
1087.55518,0.00504
1085.62689,0.00427
1083.69860,0.00358
1081.77031,0.00300
1079.84202,0.00252
1077.91373,0.00215
1075.98545,0.00185
1074.05716,0.00156
1072.12887,0.00127
1070.20058,0.00103
1068.27229,0.00088
1066.34400,0.00071
1064.41571,0.00054
1062.48742,0.00043
1060.55913,0.00031
1058.63084,0.00015
1056.70255,0.00000
1054.77426,-0.00013
1052.84597,-0.00025
1050.91768,-0.00036
1048.98939,-0.00040
1047.06111,-0.00042
1045.13282,-0.00045
1043.20453,-0.00045
1041.27624,-0.00050
1039.34795,-0.00060
1037.41966,-0.00069
1035.49137,-0.00073
1033.56308,-0.00076
1031.63479,-0.00075
1029.70650,-0.00068
1027.77821,-0.00065
1025.84992,-0.00069
1023.92163,-0.00074
1021.99334,-0.00072
1020.06506,-0.00064
1018.13677,-0.00060
1016.20848,-0.00066
1014.28019,-0.00074
1012.35190,-0.00067
1010.42361,-0.00053
1008.49532,-0.00049
1006.56703,-0.00054
1004.63874,-0.00056
1002.71045,-0.00052
1000.78216,-0.00046
998.85387,-0.00042
996.92558,-0.00037
994.99729,-0.00033
993.06900,-0.00029
991.14072,-0.00024
989.21243,-0.00020
987.28414,-0.00021
985.35585,-0.00019
983.42756,-0.00008
981.49927,0.00000
979.57098,-0.00006
977.64269,-0.00014
975.71440,-0.00014
973.78611,-0.00006
971.85782,0.00003
969.92953,0.00006
968.00124,0.00005
966.07295,0.00009
964.14466,0.00021
962.21638,0.00038
960.28809,0.00052
958.35980,0.00061
956.43151,0.00069
954.50322,0.00079
952.57493,0.00093
950.64664,0.00107
948.71835,0.00118
946.79006,0.00125
944.86177,0.00130
942.93348,0.00141
941.00519,0.00160
939.07690,0.00181
937.14861,0.00198
935.22032,0.00216
933.29204,0.00236
931.36375,0.00260
929.43546,0.00288
927.50717,0.00318
925.57888,0.00356
923.65059,0.00405
921.72230,0.00456
919.79401,0.00510
917.86572,0.00569
915.93743,0.00633
914.00914,0.00705
912.08085,0.00793
910.15256,0.00900
908.22427,0.01023
906.29598,0.01164
904.36770,0.01328
902.43941,0.01519
900.51112,0.01738
898.58283,0.01990
896.65454,0.02289
894.72625,0.02619
892.79796,0.02929
890.86967,0.03158
888.94138,0.03256
887.01309,0.03201
885.08480,0.03008
883.15651,0.02728
881.22822,0.02421
879.29993,0.02136
877.37165,0.01903
875.44336,0.01714
873.51507,0.01559
871.58678,0.01437
869.65849,0.01344
867.73020,0.01279
865.80191,0.01239
863.87362,0.01214
861.94533,0.01187
860.01704,0.01164
858.08875,0.01157
856.16046,0.01165
854.23217,0.01180
852.30388,0.01195
850.37559,0.01216
848.44731,0.01241
846.51902,0.01272
844.59073,0.01311
842.66244,0.01354
840.73415,0.01391
838.80586,0.01423
836.87757,0.01461
834.94928,0.01517
833.02099,0.01584
831.09270,0.01643
829.16441,0.01692
827.23612,0.01751
825.30783,0.01828
823.37954,0.01910
821.45125,0.01996
819.52297,0.02084
817.59468,0.02165
815.66639,0.02249
813.73810,0.02343
811.80981,0.02441
809.88152,0.02527
807.95323,0.02603
806.02494,0.02693
804.09665,0.02802
802.16836,0.02922
800.24007,0.03043
798.31178,0.03167
796.38349,0.03299
794.45520,0.03437
792.52691,0.03585
790.59863,0.03741
788.67034,0.03904
786.74205,0.04073
784.81376,0.04256
782.88547,0.04453
780.95718,0.04665
779.02889,0.04896
777.10060,0.05138
775.17231,0.05393
773.24402,0.05661
771.31573,0.05945
769.38744,0.06249
767.45915,0.06570
765.53086,0.06909
763.60257,0.07265
761.67429,0.07642
759.74600,0.08039
757.81771,0.08461
755.88942,0.08913
753.96113,0.09385
752.03284,0.09883
750.10455,0.10415
748.17626,0.10981
746.24797,0.11573
744.31968,0.12185
742.39139,0.12823
740.46310,0.13501
738.53481,0.14219
736.60652,0.14962
734.67824,0.15727
732.74995,0.16505
730.82166,0.17307
728.89337,0.18155
726.96508,0.19074
725.03679,0.20087
723.10850,0.21210
721.18021,0.22497
719.25192,0.23992
717.32363,0.25681
715.39534,0.27574
713.46705,0.29702
711.53876,0.32039
709.61047,0.34562
707.68218,0.37293
705.75390,0.40227
703.82561,0.43328
701.89732,0.46537
699.96903,0.49850
698.04074,0.53329
696.11245,0.57028
694.18416,0.60992
692.25587,0.65223
690.32758,0.69764
688.39929,0.74615
686.47100,0.79605
684.54271,0.84617
682.61442,0.89643
680.68613,0.94512
678.75784,0.98943
676.82956,1.02607
674.90127,1.04949
672.97298,1.05523
671.04469,1.04486
669.11640,1.00992
667.18811,0.94668
665.25982,0.89400
663.33153,0.84924
661.40324,0.80099
659.47495,0.75503
657.54666,0.71505
655.61837,0.67984
653.69008,0.64730
651.76179,0.61556
649.83350,0.58349
647.90522,0.55131
645.97693,0.51980
644.04864,0.48902
642.12035,0.45926
640.19206,0.43096
638.26377,0.40474
636.33548,0.38038
634.40719,0.35761
632.47890,0.33654
630.55061,0.31702
628.62232,0.29884
626.69403,0.28156
624.76574,0.26466
622.83745,0.24736
620.90916,0.23065
618.98088,0.21544
617.05259,0.20114
615.12430,0.18757
613.19601,0.17482
611.26772,0.16377
609.33943,0.15392
607.41114,0.14390
605.48285,0.13301
603.55456,0.12207
601.62627,0.11181
599.69798,0.10237
597.76969,0.09453
595.84140,0.08643
593.91311,0.07764
591.98483,0.06933
590.05654,0.06211
588.12825,0.05547
586.19996,0.04829
584.27167,0.04234
582.34338,0.03919
580.41509,0.03724
578.48680,0.03390
576.55851,0.02978
574.63022,0.02556
572.70193,0.02097
570.77364,0.01756
568.84535,0.01538
566.91706,0.01471
564.98877,0.01432
563.06049,0.01267
561.13220,0.01034
559.20391,0.00862
557.27562,0.00783
555.34733,0.00586
553.41904,0.00337
551.49075,0.00139
549.56246,0.00000
