6997.76196,0.00159
6995.83367,0.00078
6993.90538,0.00015
6991.97709,0.00005
6990.04880,0.00000
6988.12051,0.00020
6986.19222,0.00099
6984.26393,0.00143
6982.33565,0.00131
6980.40736,0.00173
6978.47907,0.00275
6976.55078,0.00354
6974.62249,0.00377
6972.69420,0.00311
6970.76591,0.00219
6968.83762,0.00229
6966.90933,0.00318
6964.98104,0.00385
6963.05275,0.00438
6961.12446,0.00458
6959.19617,0.00414
6957.26788,0.00370
6955.33959,0.00363
6953.41131,0.00343
6951.48302,0.00296
6949.55473,0.00270
6947.62644,0.00302
6945.69815,0.00353
6943.76986,0.00380
6941.84157,0.00392
6939.91328,0.00396
6937.98499,0.00410
6936.05670,0.00487
6934.12841,0.00570
6932.20012,0.00584
6930.27183,0.00578
6928.34354,0.00569
6926.41526,0.00520
6924.48697,0.00464
6922.55868,0.00421
6920.63039,0.00392
6918.70210,0.00394
6916.77381,0.00431
6914.84552,0.00477
6912.91723,0.00513
6910.98894,0.00548
6909.06065,0.00555
6907.13236,0.00498
6905.20407,0.00414
6903.27578,0.00421
6901.34749,0.00519
6899.41920,0.00570
6897.49092,0.00580
6895.56263,0.00662
6893.63434,0.00747
6891.70605,0.00735
6889.77776,0.00695
6887.84947,0.00725
6885.92118,0.00789
6883.99289,0.00791
6882.06460,0.00729
6880.13631,0.00660
6878.20802,0.00615
6876.27973,0.00624
6874.35144,0.00665
6872.42315,0.00703
6870.49486,0.00767
6868.56658,0.00828
6866.63829,0.00831
6864.71000,0.00811
6862.78171,0.00806
6860.85342,0.00822
6858.92513,0.00859
6856.99684,0.00897
6855.06855,0.00909
6853.14026,0.00903
6851.21197,0.00892
6849.28368,0.00878
6847.35539,0.00870
6845.42710,0.00855
6843.49881,0.00833
6841.57052,0.00830
6839.64224,0.00848
6837.71395,0.00875
6835.78566,0.00888
6833.85737,0.00895
6831.92908,0.00950
6830.00079,0.01029
6828.07250,0.01071
6826.14421,0.01086
6824.21592,0.01075
6822.28763,0.01036
6820.35934,0.01023
6818.43105,0.01054
6816.50276,0.01101
6814.57447,0.01166
6812.64618,0.01224
6810.71790,0.01189
6808.78961,0.01123
6806.86132,0.01149
6804.93303,0.01174
6803.00474,0.01132
6801.07645,0.01137
6799.14816,0.01183
6797.21987,0.01180
6795.29158,0.01161
6793.36329,0.01189
6791.43500,0.01224
6789.50671,0.01206
6787.57842,0.01190
6785.65013,0.01261
6783.72185,0.01353
6781.79356,0.01392
6779.86527,0.01403
6777.93698,0.01396
6776.00869,0.01362
6774.08040,0.01336
6772.15211,0.01341
6770.22382,0.01394
6768.29553,0.01461
6766.36724,0.01464
6764.43895,0.01441
6762.51066,0.01459
6760.58237,0.01476
6758.65408,0.01478
6756.72579,0.01508
6754.79751,0.01540
6752.86922,0.01532
6750.94093,0.01519
6749.01264,0.01546
6747.08435,0.01581
6745.15606,0.01573
6743.22777,0.01568
6741.29948,0.01610
6739.37119,0.01657
6737.44290,0.01660
6735.51461,0.01619
6733.58632,0.01605
6731.65803,0.01651
6729.72974,0.01694
6727.80145,0.01672
6725.87317,0.01646
6723.94488,0.01709
6722.01659,0.01794
6720.08830,0.01781
6718.16001,0.01716
6716.23172,0.01690
6714.30343,0.01675
6712.37514,0.01643
6710.44685,0.01653
6708.51856,0.01703
6706.59027,0.01733
6704.66198,0.01743
6702.73369,0.01774
6700.80540,0.01819
6698.87711,0.01871
6696.94883,0.01920
6695.02054,0.01931
6693.09225,0.01914
6691.16396,0.01896
6689.23567,0.01891
6687.30738,0.01933
6685.37909,0.02020
6683.45080,0.02081
6681.52251,0.02103
6679.59422,0.02117
6677.66593,0.02087
6675.73764,0.02000
6673.80935,0.01929
6671.88106,0.01948
6669.95277,0.02034
6668.02449,0.02086
6666.09620,0.02097
6664.16791,0.02140
6662.23962,0.02224
6660.31133,0.02286
6658.38304,0.02305
6656.45475,0.02299
6654.52646,0.02279
6652.59817,0.02254
6650.66988,0.02237
6648.74159,0.02258
6646.81330,0.02310
6644.88501,0.02339
6642.95672,0.02355
6641.02844,0.02368
6639.10015,0.02348
6637.17186,0.02323
6635.24357,0.02339
6633.31528,0.02367
6631.38699,0.02379
6629.45870,0.02405
6627.53041,0.02460
6625.60212,0.02520
6623.67383,0.02540
6621.74554,0.02509
6619.81725,0.02475
6617.88896,0.02504
6615.96067,0.02579
6614.03238,0.02632
6612.10410,0.02645
6610.17581,0.02642
6608.24752,0.02640
6606.31923,0.02641
6604.39094,0.02634
6602.46265,0.02640
6600.53436,0.02673
6598.60607,0.02698
6596.67778,0.02690
6594.74949,0.02675
6592.82120,0.02680
6590.89291,0.02709
6588.96462,0.02740
6587.03633,0.02758
6585.10804,0.02775
6583.17976,0.02811
6581.25147,0.02842
6579.32318,0.02843
6577.39489,0.02867
6575.46660,0.02944
6573.53831,0.02979
6571.61002,0.02921
6569.68173,0.02883
6567.75344,0.02952
6565.82515,0.03047
6563.89686,0.03073
6561.96857,0.03043
6560.04028,0.02980
6558.11199,0.02920
6556.18370,0.02953
6554.25542,0.03050
6552.32713,0.03089
6550.39884,0.03104
6548.47055,0.03168
6546.54226,0.03222
6544.61397,0.03223
6542.68568,0.03203
6540.75739,0.03200
6538.82910,0.03227
6536.90081,0.03242
6534.97252,0.03226
6533.04423,0.03209
6531.11594,0.03209
6529.18765,0.03217
6527.25936,0.03231
6525.33108,0.03267
6523.40279,0.03300
6521.47450,0.03297
6519.54621,0.03291
6517.61792,0.03309
6515.68963,0.03355
6513.76134,0.03398
6511.83305,0.03397
6509.90476,0.03365
6507.97647,0.03371
6506.04818,0.03415
6504.11989,0.03436
6502.19160,0.03425
6500.26331,0.03416
6498.33503,0.03461
6496.40674,0.03563
6494.47845,0.03611
6492.55016,0.03568
6490.62187,0.03513
6488.69358,0.03503
6486.76529,0.03540
6484.83700,0.03601
6482.90871,0.03655
6480.98042,0.03678
6479.05213,0.03684
6477.12384,0.03698
6475.19555,0.03704
6473.26726,0.03689
6471.33897,0.03676
6469.41069,0.03682
6467.48240,0.03727
6465.55411,0.03801
6463.62582,0.03847
6461.69753,0.03834
6459.76924,0.03806
6457.84095,0.03811
6455.91266,0.03845
6453.98437,0.03868
6452.05608,0.03892
6450.12779,0.03925
6448.19950,0.03933
6446.27121,0.03907
6444.34292,0.03886
6442.41463,0.03892
6440.48635,0.03955
6438.55806,0.04055
6436.62977,0.04134
6434.70148,0.04164
6432.77319,0.04147
6430.84490,0.04118
6428.91661,0.04123
6426.98832,0.04156
6425.06003,0.04190
6423.13174,0.04218
6421.20345,0.04245
6419.27516,0.04260
6417.34687,0.04251
6415.41858,0.04225
6413.49029,0.04200
6411.56201,0.04198
6409.63372,0.04236
6407.70543,0.04278
6405.77714,0.04298
6403.84885,0.04335
6401.92056,0.04381
6399.99227,0.04411
6398.06398,0.04431
6396.13569,0.04442
6394.20740,0.04448
6392.27911,0.04451
6390.35082,0.04462
6388.42253,0.04513
6386.49424,0.04570
6384.56595,0.04570
6382.63767,0.04539
6380.70938,0.04550
6378.78109,0.04577
6376.85280,0.04548
6374.92451,0.04512
6372.99622,0.04542
6371.06793,0.04610
6369.13964,0.04672
6367.21135,0.04700
6365.28306,0.04684
6363.35477,0.04678
6361.42648,0.04718
6359.49819,0.04755
6357.56990,0.04774
6355.64162,0.04801
6353.71333,0.04807
6351.78504,0.04764
6349.85675,0.04756
6347.92846,0.04834
6346.00017,0.04926
6344.07188,0.04953
6342.14359,0.04919
6340.21530,0.04879
6338.28701,0.04879
6336.35872,0.04921
6334.43043,0.04964
6332.50214,0.04975
6330.57385,0.04964
6328.64556,0.04986
6326.71728,0.05043
6324.78899,0.05058
6322.86070,0.05036
6320.93241,0.05084
6319.00412,0.05169
6317.07583,0.05187
6315.14754,0.05174
6313.21925,0.05190
6311.29096,0.05217
6309.36267,0.05252
6307.43438,0.05293
6305.50609,0.05308
6303.57780,0.05281
6301.64951,0.05257
6299.72122,0.05264
6297.79294,0.05290
6295.86465,0.05319
6293.93636,0.05320
6292.00807,0.05298
6290.07978,0.05307
6288.15149,0.05358
6286.22320,0.05411
6284.29491,0.05433
6282.36662,0.05438
6280.43833,0.05441
6278.51004,0.05443
6276.58175,0.05448
6274.65346,0.05463
6272.72517,0.05494
6270.79688,0.05542
6268.86860,0.05575
6266.94031,0.05577
6265.01202,0.05599
6263.08373,0.05649
6261.15544,0.05671
6259.22715,0.05656
6257.29886,0.05648
6255.37057,0.05658
6253.44228,0.05678
6251.51399,0.05694
6249.58570,0.05711
6247.65741,0.05762
6245.72912,0.05836
6243.80083,0.05870
6241.87254,0.05844
6239.94426,0.05806
6238.01597,0.05826
6236.08768,0.05875
6234.15939,0.05891
6232.23110,0.05917
6230.30281,0.05979
6228.37452,0.06016
6226.44623,0.06023
6224.51794,0.06021
6222.58965,0.06006
6220.66136,0.05995
6218.73307,0.06024
6216.80478,0.06092
6214.87649,0.06153
6212.94821,0.06167
6211.01992,0.06155
6209.09163,0.06149
6207.16334,0.06141
6205.23505,0.06141
6203.30676,0.06166
6201.37847,0.06210
6199.45018,0.06277
6197.52189,0.06367
6195.59360,0.06427
6193.66531,0.06408
6191.73702,0.06353
6189.80873,0.06320
6187.88044,0.06300
6185.95215,0.06307
6184.02387,0.06355
6182.09558,0.06408
6180.16729,0.06421
6178.23900,0.06419
6176.31071,0.06424
6174.38242,0.06437
6172.45413,0.06467
6170.52584,0.06504
6168.59755,0.06524
6166.66926,0.06537
6164.74097,0.06557
6162.81268,0.06583
6160.88439,0.06594
6158.95610,0.06606
6157.02781,0.06638
6155.09953,0.06666
6153.17124,0.06681
6151.24295,0.06689
6149.31466,0.06684
6147.38637,0.06692
6145.45808,0.06738
6143.52979,0.06802
6141.60150,0.06852
6139.67321,0.06860
6137.74492,0.06833
6135.81663,0.06831
6133.88834,0.06867
6131.96005,0.06902
6130.03176,0.06919
6128.10347,0.06920
6126.17519,0.06914
6124.24690,0.06923
6122.31861,0.06950
6120.39032,0.06973
6118.46203,0.06979
6116.53374,0.06982
6114.60545,0.06997
6112.67716,0.07008
6110.74887,0.07011
6108.82058,0.07042
6106.89229,0.07091
6104.96400,0.07113
6103.03571,0.07107
6101.10742,0.07107
6099.17913,0.07120
6097.25085,0.07119
6095.32256,0.07118
6093.39427,0.07154
6091.46598,0.07212
6089.53769,0.07261
6087.60940,0.07318
6085.68111,0.07389
6083.75282,0.07418
6081.82453,0.07378
6079.89624,0.07340
6077.96795,0.07362
6076.03966,0.07403
6074.11137,0.07436
6072.18308,0.07487
6070.25480,0.07514
6068.32651,0.07487
6066.39822,0.07489
6064.46993,0.07559
6062.54164,0.07594
6060.61335,0.07545
6058.68506,0.07492
6056.75677,0.07483
6054.82848,0.07511
6052.90019,0.07567
6050.97190,0.07614
6049.04361,0.07608
6047.11532,0.07597
6045.18703,0.07618
6043.25874,0.07627
6041.33046,0.07633
6039.40217,0.07672
6037.47388,0.07713
6035.54559,0.07729
6033.61730,0.07729
6031.68901,0.07752
6029.76072,0.07817
6027.83243,0.07880
6025.90414,0.07909
6023.97585,0.07923
6022.04756,0.07931
6020.11927,0.07943
6018.19098,0.07980
6016.26269,0.08000
6014.33440,0.07930
6012.40612,0.07835
6010.47783,0.07839
6008.54954,0.07920
6006.62125,0.07974
6004.69296,0.07992
6002.76467,0.08015
6000.83638,0.08053
5998.90809,0.08086
5996.97980,0.08112
5995.05151,0.08118
5993.12322,0.08094
5991.19493,0.08098
5989.26664,0.08170
5987.33835,0.08242
5985.41006,0.08240
5983.48178,0.08184
5981.55349,0.08168
5979.62520,0.08223
5977.69691,0.08281
5975.76862,0.08292
5973.84033,0.08297
5971.91204,0.08346
5969.98375,0.08399
5968.05546,0.08409
5966.12717,0.08389
5964.19888,0.08368
5962.27059,0.08370
5960.34230,0.08419
5958.41401,0.08481
5956.48572,0.08512
5954.55744,0.08509
5952.62915,0.08497
5950.70086,0.08507
5948.77257,0.08545
5946.84428,0.08569
5944.91599,0.08582
5942.98770,0.08610
5941.05941,0.08626
5939.13112,0.08617
5937.20283,0.08624
5935.27454,0.08662
5933.34625,0.08708
5931.41796,0.08750
5929.48967,0.08783
5927.56139,0.08795
5925.63310,0.08780
5923.70481,0.08750
5921.77652,0.08752
5919.84823,0.08796
5917.91994,0.08832
5915.99165,0.08846
5914.06336,0.08859
5912.13507,0.08866
5910.20678,0.08877
5908.27849,0.08912
5906.35020,0.08941
5904.42191,0.08938
5902.49362,0.08930
5900.56533,0.08954
5898.63705,0.09006
5896.70876,0.09050
5894.78047,0.09070
5892.85218,0.09084
5890.92389,0.09121
5888.99560,0.09182
5887.06731,0.09214
5885.13902,0.09193
5883.21073,0.09165
5881.28244,0.09163
5879.35415,0.09182
5877.42586,0.09208
5875.49757,0.09225
5873.56928,0.09220
5871.64099,0.09217
5869.71271,0.09237
5867.78442,0.09257
5865.85613,0.09271
5863.92784,0.09298
5861.99955,0.09328
5860.07126,0.09339
5858.14297,0.09361
5856.21468,0.09394
5854.28639,0.09417
5852.35810,0.09433
5850.42981,0.09453
5848.50152,0.09464
5846.57323,0.09466
5844.64494,0.09468
5842.71665,0.09470
5840.78837,0.09477
5838.86008,0.09497
5836.93179,0.09532
5835.00350,0.09569
5833.07521,0.09596
5831.14692,0.09607
5829.21863,0.09616
5827.29034,0.09636
5825.36205,0.09658
5823.43376,0.09671
5821.50547,0.09679
5819.57718,0.09680
5817.64889,0.09691
5815.72060,0.09718
5813.79231,0.09753
5811.86403,0.09786
5809.93574,0.09810
5808.00745,0.09833
5806.07916,0.09853
5804.15087,0.09858
5802.22258,0.09852
5800.29429,0.09845
5798.36600,0.09859
5796.43771,0.09885
5794.50942,0.09904
5792.58113,0.09914
5790.65284,0.09937
5788.72455,0.09973
5786.79626,0.10002
5784.86798,0.10010
5782.93969,0.10007
5781.01140,0.10003
5779.08311,0.09996
5777.15482,0.09990
5775.22653,0.09998
5773.29824,0.10014
5771.36995,0.10048
5769.44166,0.10094
5767.51337,0.10110
5765.58508,0.10107
5763.65679,0.10121
5761.72850,0.10151
5759.80021,0.10177
5757.87192,0.10206
5755.94364,0.10240
5754.01535,0.10253
5752.08706,0.10238
5750.15877,0.10218
5748.23048,0.10209
5746.30219,0.10218
5744.37390,0.10239
5742.44561,0.10272
5740.51732,0.10316
5738.58903,0.10361
5736.66074,0.10394
5734.73245,0.10423
5732.80416,0.10441
5730.87587,0.10448
5728.94758,0.10467
5727.01930,0.10490
5725.09101,0.10495
5723.16272,0.10483
5721.23443,0.10473
5719.30614,0.10484
5717.37785,0.10506
5715.44956,0.10517
5713.52127,0.10521
5711.59298,0.10540
5709.66469,0.10550
5707.73640,0.10535
5705.80811,0.10531
5703.87982,0.10557
5701.95153,0.10575
5700.02324,0.10571
5698.09496,0.10608
5696.16667,0.10686
5694.23838,0.10722
5692.31009,0.10689
5690.38180,0.10649
5688.45351,0.10649
5686.52522,0.10675
5684.59693,0.10704
5682.66864,0.10738
5680.74035,0.10765
5678.81206,0.10776
5676.88377,0.10774
5674.95548,0.10784
5673.02719,0.10823
5671.09890,0.10868
5669.17062,0.10900
5667.24233,0.10937
5665.31404,0.10962
5663.38575,0.10943
5661.45746,0.10894
5659.52917,0.10869
5657.60088,0.10894
5655.67259,0.10944
5653.74430,0.10988
5651.81601,0.11013
5649.88772,0.11019
5647.95943,0.11027
5646.03114,0.11048
5644.10285,0.11081
5642.17457,0.11113
5640.24628,0.11122
5638.31799,0.11104
5636.38970,0.11091
5634.46141,0.11117
5632.53312,0.11160
5630.60483,0.11172
5628.67654,0.11172
5626.74825,0.11190
5624.81996,0.11213
5622.89167,0.11221
5620.96338,0.11218
5619.03509,0.11234
5617.10680,0.11266
5615.17851,0.11284
5613.25023,0.11295
5611.32194,0.11310
5609.39365,0.11312
5607.46536,0.11324
5605.53707,0.11348
5603.60878,0.11358
5601.68049,0.11369
5599.75220,0.11406
5597.82391,0.11432
5595.89562,0.11430
5593.96733,0.11432
5592.03904,0.11462
5590.11075,0.11490
5588.18246,0.11485
5586.25417,0.11462
5584.32589,0.11455
5582.39760,0.11474
5580.46931,0.11515
5578.54102,0.11546
5576.61273,0.11558
5574.68444,0.11563
5572.75615,0.11540
5570.82786,0.11510
5568.89957,0.11527
5566.97128,0.11577
5565.04299,0.11619
5563.11470,0.11634
5561.18641,0.11632
5559.25812,0.11626
5557.32983,0.11627
5555.40155,0.11651
5553.47326,0.11695
5551.54497,0.11730
5549.61668,0.11743
5547.68839,0.11756
5545.76010,0.11772
5543.83181,0.11764
5541.90352,0.11735
5539.97523,0.11718
5538.04694,0.11729
5536.11865,0.11766
5534.19036,0.11818
5532.26207,0.11864
5530.33378,0.11882
5528.40549,0.11876
5526.47721,0.11875
5524.54892,0.11887
5522.62063,0.11897
5520.69234,0.11907
5518.76405,0.11924
5516.83576,0.11944
5514.90747,0.11976
5512.97918,0.12000
5511.05089,0.11991
5509.12260,0.11972
5507.19431,0.11963
5505.26602,0.11964
5503.33773,0.11977
5501.40944,0.11992
5499.48116,0.12003
5497.55287,0.12017
5495.62458,0.12037
5493.69629,0.12074
5491.76800,0.12111
5489.83971,0.12127
5487.91142,0.12119
5485.98313,0.12109
5484.05484,0.12131
5482.12655,0.12168
5480.19826,0.12180
5478.26997,0.12183
5476.34168,0.12209
5474.41339,0.12233
5472.48510,0.12207
5470.55682,0.12166
5468.62853,0.12162
5466.70024,0.12190
5464.77195,0.12230
5462.84366,0.12270
5460.91537,0.12293
5458.98708,0.12284
5457.05879,0.12278
5455.13050,0.12294
5453.20221,0.12303
5451.27392,0.12295
5449.34563,0.12298
5447.41734,0.12312
5445.48905,0.12310
5443.56076,0.12299
5441.63248,0.12317
5439.70419,0.12355
5437.77590,0.12395
5435.84761,0.12445
5433.91932,0.12480
5431.99103,0.12471
5430.06274,0.12462
5428.13445,0.12467
5426.20616,0.12465
5424.27787,0.12466
5422.34958,0.12458
5420.42129,0.12434
5418.49300,0.12428
5416.56471,0.12466
5414.63642,0.12536
5412.70814,0.12607
5410.77985,0.12633
5408.85156,0.12607
5406.92327,0.12577
5404.99498,0.12560
5403.06669,0.12533
5401.13840,0.12519
5399.21011,0.12552
5397.28182,0.12613
5395.35353,0.12665
5393.42524,0.12689
5391.49695,0.12679
5389.56866,0.12669
5387.64037,0.12698
5385.71209,0.12738
5383.78380,0.12730
5381.85551,0.12704
5379.92722,0.12727
5377.99893,0.12776
5376.07064,0.12774
5374.14235,0.12734
5372.21406,0.12726
5370.28577,0.12742
5368.35748,0.12764
5366.42919,0.12801
5364.50090,0.12823
5362.57261,0.12796
5360.64432,0.12761
5358.71603,0.12769
5356.78775,0.12804
5354.85946,0.12849
5352.93117,0.12890
5351.00288,0.12903
5349.07459,0.12895
5347.14630,0.12900
5345.21801,0.12938
5343.28972,0.12980
5341.36143,0.12985
5339.43314,0.12983
5337.50485,0.12992
5335.57656,0.12981
5333.64827,0.12970
5331.71998,0.12969
5329.79169,0.12960
5327.86341,0.12961
5325.93512,0.12988
5324.00683,0.13016
5322.07854,0.13017
5320.15025,0.12997
5318.22196,0.12992
5316.29367,0.13011
5314.36538,0.13035
5312.43709,0.13044
5310.50880,0.13039
5308.58051,0.13032
5306.65222,0.13026
5304.72393,0.13008
5302.79564,0.13003
5300.86735,0.13034
5298.93907,0.13071
5297.01078,0.13081
5295.08249,0.13096
5293.15420,0.13144
5291.22591,0.13185
5289.29762,0.13175
5287.36933,0.13151
5285.44104,0.13159
5283.51275,0.13183
5281.58446,0.13197
5279.65617,0.13194
5277.72788,0.13179
5275.79959,0.13174
5273.87130,0.13189
5271.94301,0.13207
5270.01473,0.13224
5268.08644,0.13237
5266.15815,0.13250
5264.22986,0.13267
5262.30157,0.13276
5260.37328,0.13266
5258.44499,0.13258
5256.51670,0.13269
5254.58841,0.13290
5252.66012,0.13305
5250.73183,0.13324
5248.80354,0.13345
5246.87525,0.13355
5244.94696,0.13349
5243.01868,0.13331
5241.09039,0.13317
5239.16210,0.13333
5237.23381,0.13370
5235.30552,0.13399
5233.37723,0.13399
5231.44894,0.13396
5229.52065,0.13412
5227.59236,0.13441
5225.66407,0.13458
5223.73578,0.13457
5221.80749,0.13454
5219.87920,0.13459
5217.95091,0.13462
5216.02262,0.13455
5214.09434,0.13439
5212.16605,0.13441
5210.23776,0.13463
5208.30947,0.13482
5206.38118,0.13488
5204.45289,0.13497
5202.52460,0.13507
5200.59631,0.13498
5198.66802,0.13489
5196.73973,0.13496
5194.81144,0.13493
5192.88315,0.13478
5190.95486,0.13486
5189.02657,0.13510
5187.09828,0.13522
5185.17000,0.13516
5183.24171,0.13516
5181.31342,0.13527
5179.38513,0.13535
5177.45684,0.13532
5175.52855,0.13531
5173.60026,0.13540
5171.67197,0.13573
5169.74368,0.13609
5167.81539,0.13617
5165.88710,0.13612
5163.95881,0.13615
5162.03052,0.13619
5160.10223,0.13625
5158.17394,0.13634
5156.24566,0.13642
5154.31737,0.13644
5152.38908,0.13639
5150.46079,0.13625
5148.53250,0.13611
5146.60421,0.13611
5144.67592,0.13637
5142.74763,0.13684
5140.81934,0.13713
5138.89105,0.13697
5136.96276,0.13682
5135.03447,0.13689
5133.10618,0.13700
5131.17789,0.13713
5129.24960,0.13722
5127.32132,0.13714
5125.39303,0.13696
5123.46474,0.13689
5121.53645,0.13705
5119.60816,0.13728
5117.67987,0.13734
5115.75158,0.13722
5113.82329,0.13703
5111.89500,0.13691
5109.96671,0.13699
5108.03842,0.13731
5106.11013,0.13756
5104.18184,0.13753
5102.25355,0.13744
5100.32527,0.13751
5098.39698,0.13773
5096.46869,0.13799
5094.54040,0.13816
5092.61211,0.13841
5090.68382,0.13871
5088.75553,0.13875
5086.82724,0.13859
5084.89895,0.13854
5082.97066,0.13854
5081.04237,0.13852
5079.11408,0.13850
5077.18579,0.13845
5075.25750,0.13835
5073.32921,0.13834
5071.40093,0.13835
5069.47264,0.13832
5067.54435,0.13839
5065.61606,0.13855
5063.68777,0.13863
5061.75948,0.13868
5059.83119,0.13877
5057.90290,0.13890
5055.97461,0.13904
5054.04632,0.13909
5052.11803,0.13913
5050.18974,0.13925
5048.26145,0.13940
5046.33316,0.13937
5044.40487,0.13920
5042.47659,0.13915
5040.54830,0.13929
5038.62001,0.13943
5036.69172,0.13944
5034.76343,0.13946
5032.83514,0.13966
5030.90685,0.13983
5028.97856,0.13977
5027.05027,0.13957
5025.12198,0.13941
5023.19369,0.13935
5021.26540,0.13950
5019.33711,0.13972
5017.40882,0.13978
5015.48053,0.13971
5013.55225,0.13968
5011.62396,0.13966
5009.69567,0.13964
5007.76738,0.13967
5005.83909,0.13980
5003.91080,0.13988
5001.98251,0.13984
5000.05422,0.13985
4998.12593,0.14005
4996.19764,0.14021
4994.26935,0.14015
4992.34106,0.14005
4990.41277,0.14013
4988.48448,0.14023
4986.55619,0.14018
4984.62791,0.14011
4982.69962,0.14017
4980.77133,0.14034
4978.84304,0.14042
4976.91475,0.14032
4974.98646,0.14022
4973.05817,0.14026
4971.12988,0.14033
4969.20159,0.14039
4967.27330,0.14047
4965.34501,0.14048
4963.41672,0.14040
4961.48843,0.14040
4959.56014,0.14059
4957.63186,0.14084
4955.70357,0.14097
4953.77528,0.14103
4951.84699,0.14112
4949.91870,0.14112
4947.99041,0.14097
4946.06212,0.14086
4944.13383,0.14094
4942.20554,0.14109
4940.27725,0.14106
4938.34896,0.14088
4936.42067,0.14076
4934.49238,0.14077
4932.56409,0.14088
4930.63580,0.14115
4928.70752,0.14142
4926.77923,0.14149
4924.85094,0.14135
4922.92265,0.14118
4920.99436,0.14109
4919.06607,0.14110
4917.13778,0.14114
4915.20949,0.14120
4913.28120,0.14122
4911.35291,0.14110
4909.42462,0.14101
4907.49633,0.14118
4905.56804,0.14137
4903.63975,0.14137
4901.71146,0.14133
4899.78318,0.14140
4897.85489,0.14149
4895.92660,0.14146
4893.99831,0.14133
4892.07002,0.14118
4890.14173,0.14114
4888.21344,0.14114
4886.28515,0.14115
4884.35686,0.14114
4882.42857,0.14111
4880.50028,0.14117
4878.57199,0.14133
4876.64370,0.14138
4874.71541,0.14131
4872.78712,0.14128
4870.85884,0.14142
4868.93055,0.14165
4867.00226,0.14174
4865.07397,0.14168
4863.14568,0.14162
4861.21739,0.14146
4859.28910,0.14130
4857.36081,0.14132
4855.43252,0.14144
4853.50423,0.14145
4851.57594,0.14137
4849.64765,0.14132
4847.71936,0.14134
4845.79107,0.14134
4843.86278,0.14130
4841.93450,0.14144
4840.00621,0.14169
4838.07792,0.14191
4836.14963,0.14195
4834.22134,0.14175
4832.29305,0.14147
4830.36476,0.14130
4828.43647,0.14126
4826.50818,0.14128
4824.57989,0.14119
4822.65160,0.14107
4820.72331,0.14119
4818.79502,0.14144
4816.86673,0.14157
4814.93845,0.14164
4813.01016,0.14161
4811.08187,0.14147
4809.15358,0.14142
4807.22529,0.14160
4805.29700,0.14173
4803.36871,0.14162
4801.44042,0.14143
4799.51213,0.14133
4797.58384,0.14131
4795.65555,0.14136
4793.72726,0.14140
4791.79897,0.14146
4789.87068,0.14161
4787.94239,0.14168
4786.01411,0.14155
4784.08582,0.14144
4782.15753,0.14146
4780.22924,0.14141
4778.30095,0.14124
4776.37266,0.14118
4774.44437,0.14130
4772.51608,0.14147
4770.58779,0.14155
4768.65950,0.14139
4766.73121,0.14119
4764.80292,0.14124
4762.87463,0.14153
4760.94634,0.14173
4759.01805,0.14169
4757.08977,0.14160
4755.16148,0.14167
4753.23319,0.14182
4751.30490,0.14189
4749.37661,0.14186
4747.44832,0.14177
4745.52003,0.14166
4743.59174,0.14162
4741.66345,0.14163
4739.73516,0.14165
4737.80687,0.14163
4735.87858,0.14161
4733.95029,0.14165
4732.02200,0.14171
4730.09371,0.14165
4728.16543,0.14151
4726.23714,0.14139
4724.30885,0.14131
4722.38056,0.14118
4720.45227,0.14105
4718.52398,0.14100
4716.59569,0.14111
4714.66740,0.14130
4712.73911,0.14146
4710.81082,0.14152
4708.88253,0.14148
4706.95424,0.14136
4705.02595,0.14120
4703.09766,0.14098
4701.16937,0.14084
4699.24109,0.14093
4697.31280,0.14108
4695.38451,0.14116
4693.45622,0.14114
4691.52793,0.14105
4689.59964,0.14087
4687.67135,0.14069
4685.74306,0.14065
4683.81477,0.14077
4681.88648,0.14086
4679.95819,0.14089
4678.02990,0.14081
4676.10161,0.14071
4674.17332,0.14080
4672.24504,0.14099
4670.31675,0.14099
4668.38846,0.14079
4666.46017,0.14052
4664.53188,0.14041
4662.60359,0.14057
4660.67530,0.14075
4658.74701,0.14073
4656.81872,0.14062
4654.89043,0.14052
4652.96214,0.14045
4651.03385,0.14040
4649.10556,0.14031
4647.17727,0.14013
4645.24898,0.14000
4643.32070,0.14005
4641.39241,0.14024
4639.46412,0.14030
4637.53583,0.14012
4635.60754,0.13990
4633.67925,0.13984
4631.75096,0.13986
4629.82267,0.13979
4627.89438,0.13965
4625.96609,0.13952
4624.03780,0.13949
4622.10951,0.13955
4620.18122,0.13962
4618.25293,0.13957
4616.32464,0.13948
4614.39636,0.13939
4612.46807,0.13932
4610.53978,0.13928
4608.61149,0.13926
4606.68320,0.13923
4604.75491,0.13909
4602.82662,0.13891
4600.89833,0.13898
4598.97004,0.13917
4597.04175,0.13918
4595.11346,0.13905
4593.18517,0.13885
4591.25688,0.13866
4589.32859,0.13861
4587.40030,0.13866
4585.47202,0.13866
4583.54373,0.13863
4581.61544,0.13862
4579.68715,0.13864
4577.75886,0.13867
4575.83057,0.13858
4573.90228,0.13833
4571.97399,0.13813
4570.04570,0.13815
4568.11741,0.13815
4566.18912,0.13799
4564.26083,0.13792
4562.33254,0.13799
4560.40425,0.13799
4558.47596,0.13783
4556.54768,0.13763
4554.61939,0.13760
4552.69110,0.13775
4550.76281,0.13785
4548.83452,0.13782
4546.90623,0.13768
4544.97794,0.13749
4543.04965,0.13745
4541.12136,0.13759
4539.19307,0.13760
4537.26478,0.13742
4535.33649,0.13723
4533.40820,0.13714
4531.47991,0.13714
4529.55163,0.13714
4527.62334,0.13709
4525.69505,0.13701
4523.76676,0.13691
4521.83847,0.13682
4519.91018,0.13684
4517.98189,0.13688
4516.05360,0.13675
4514.12531,0.13652
4512.19702,0.13637
4510.26873,0.13633
4508.34044,0.13638
4506.41215,0.13643
4504.48386,0.13640
4502.55557,0.13638
4500.62729,0.13634
4498.69900,0.13622
4496.77071,0.13609
4494.84242,0.13603
4492.91413,0.13599
4490.98584,0.13598
4489.05755,0.13598
4487.12926,0.13593
4485.20097,0.13578
4483.27268,0.13560
4481.34439,0.13549
4479.41610,0.13543
4477.48781,0.13537
4475.55952,0.13535
4473.63123,0.13538
4471.70295,0.13538
4469.77466,0.13530
4467.84637,0.13519
4465.91808,0.13510
4463.98979,0.13497
4462.06150,0.13495
4460.13321,0.13500
4458.20492,0.13495
4456.27663,0.13475
4454.34834,0.13456
4452.42005,0.13448
4450.49176,0.13446
4448.56347,0.13443
4446.63518,0.13436
4444.70689,0.13426
4442.77861,0.13423
4440.85032,0.13426
4438.92203,0.13424
4436.99374,0.13409
4435.06545,0.13400
4433.13716,0.13407
4431.20887,0.13409
4429.28058,0.13384
4427.35229,0.13355
4425.42400,0.13352
4423.49571,0.13361
4421.56742,0.13365
4419.63913,0.13360
4417.71084,0.13350
4415.78255,0.13342
4413.85427,0.13337
4411.92598,0.13327
4409.99769,0.13309
4408.06940,0.13289
4406.14111,0.13280
4404.21282,0.13284
4402.28453,0.13283
4400.35624,0.13273
4398.42795,0.13261
4396.49966,0.13249
4394.57137,0.13246
4392.64308,0.13245
4390.71479,0.13236
4388.78650,0.13225
4386.85822,0.13222
4384.92993,0.13215
4383.00164,0.13190
4381.07335,0.13163
4379.14506,0.13156
4377.21677,0.13155
4375.28848,0.13148
4373.36019,0.13139
4371.43190,0.13130
4369.50361,0.13124
4367.57532,0.13125
4365.64703,0.13125
4363.71874,0.13120
4361.79045,0.13108
4359.86216,0.13092
4357.93388,0.13076
4356.00559,0.13058
4354.07730,0.13046
4352.14901,0.13043
4350.22072,0.13044
4348.29243,0.13034
4346.36414,0.13012
4344.43585,0.12991
4342.50756,0.12988
4340.57927,0.12990
4338.65098,0.12989
4336.72269,0.12983
4334.79440,0.12970
4332.86611,0.12947
4330.93782,0.12931
4329.00954,0.12935
4327.08125,0.12940
4325.15296,0.12925
4323.22467,0.12907
4321.29638,0.12899
4319.36809,0.12892
4317.43980,0.12886
4315.51151,0.12880
4313.58322,0.12874
4311.65493,0.12875
4309.72664,0.12873
4307.79835,0.12858
4305.87006,0.12841
4303.94177,0.12831
4302.01348,0.12823
4300.08520,0.12811
4298.15691,0.12797
4296.22862,0.12784
4294.30033,0.12767
4292.37204,0.12750
4290.44375,0.12740
4288.51546,0.12732
4286.58717,0.12728
4284.65888,0.12731
4282.73059,0.12729
4280.80230,0.12716
4278.87401,0.12707
4276.94572,0.12693
4275.01743,0.12674
4273.08914,0.12662
4271.16086,0.12655
4269.23257,0.12641
4267.30428,0.12622
4265.37599,0.12609
4263.44770,0.12606
4261.51941,0.12605
4259.59112,0.12601
4257.66283,0.12592
4255.73454,0.12585
4253.80625,0.12577
4251.87796,0.12559
4249.94967,0.12532
4248.02138,0.12511
4246.09309,0.12499
4244.16481,0.12496
4242.23652,0.12499
4240.30823,0.12499
4238.37994,0.12491
4236.45165,0.12478
4234.52336,0.12453
4232.59507,0.12423
4230.66678,0.12408
4228.73849,0.12404
4226.81020,0.12404
4224.88191,0.12405
4222.95362,0.12404
4221.02533,0.12399
4219.09704,0.12389
4217.16875,0.12373
4215.24047,0.12357
4213.31218,0.12344
4211.38389,0.12335
4209.45560,0.12327
4207.52731,0.12315
4205.59902,0.12299
4203.67073,0.12288
4201.74244,0.12275
4199.81415,0.12262
4197.88586,0.12254
4195.95757,0.12249
4194.02928,0.12242
4192.10099,0.12234
4190.17270,0.12227
4188.24441,0.12212
4186.31613,0.12185
4184.38784,0.12159
4182.45955,0.12145
4180.53126,0.12144
4178.60297,0.12144
4176.67468,0.12139
4174.74639,0.12125
4172.81810,0.12102
4170.88981,0.12074
4168.96152,0.12056
4167.03323,0.12049
4165.10494,0.12045
4163.17665,0.12032
4161.24836,0.12016
4159.32007,0.12004
4157.39179,0.11998
4155.46350,0.11992
4153.53521,0.11982
4151.60692,0.11970
4149.67863,0.11960
4147.75034,0.11948
4145.82205,0.11931
4143.89376,0.11910
4141.96547,0.11896
4140.03718,0.11893
4138.10889,0.11894
4136.18060,0.11890
4134.25231,0.11877
4132.32402,0.11861
4130.39573,0.11842
4128.46745,0.11824
4126.53916,0.11806
4124.61087,0.11791
4122.68258,0.11778
4120.75429,0.11762
4118.82600,0.11745
4116.89771,0.11734
4114.96942,0.11727
4113.04113,0.11721
4111.11284,0.11719
4109.18455,0.11713
4107.25626,0.11701
4105.32797,0.11690
4103.39968,0.11683
4101.47140,0.11674
4099.54311,0.11651
4097.61482,0.11621
4095.68653,0.11601
4093.75824,0.11590
4091.82995,0.11582
4089.90166,0.11574
4087.97337,0.11561
4086.04508,0.11547
4084.11679,0.11538
4082.18850,0.11532
4080.26021,0.11520
4078.33192,0.11503
4076.40363,0.11485
4074.47534,0.11472
4072.54706,0.11461
4070.61877,0.11448
4068.69048,0.11427
4066.76219,0.11402
4064.83390,0.11388
4062.90561,0.11376
4060.97732,0.11360
4059.04903,0.11349
4057.12074,0.11341
4055.19245,0.11322
4053.26416,0.11302
4051.33587,0.11293
4049.40758,0.11289
4047.47929,0.11281
4045.55100,0.11273
4043.62272,0.11261
4041.69443,0.11244
4039.76614,0.11223
4037.83785,0.11204
4035.90956,0.11193
4033.98127,0.11183
4032.05298,0.11164
4030.12469,0.11144
4028.19640,0.11134
4026.26811,0.11128
4024.33982,0.11111
4022.41153,0.11091
4020.48324,0.11077
4018.55495,0.11069
4016.62666,0.11061
4014.69838,0.11053
4012.77009,0.11039
4010.84180,0.11022
4008.91351,0.11007
4006.98522,0.10991
4005.05693,0.10978
4003.12864,0.10970
4001.20035,0.10960
3999.27206,0.10947
3997.34377,0.10929
3995.41548,0.10903
3993.48719,0.10883
3991.55890,0.10868
3989.63061,0.10854
3987.70232,0.10842
3985.77404,0.10828
3983.84575,0.10814
3981.91746,0.10806
3979.98917,0.10797
3978.06088,0.10791
3976.13259,0.10788
3974.20430,0.10772
3972.27601,0.10744
3970.34772,0.10725
3968.41943,0.10710
3966.49114,0.10691
3964.56285,0.10675
3962.63456,0.10667
3960.70627,0.10658
3958.77799,0.10647
3956.84970,0.10633
3954.92141,0.10617
3952.99312,0.10607
3951.06483,0.10609
3949.13654,0.10604
3947.20825,0.10579
3945.27996,0.10560
3943.35167,0.10558
3941.42338,0.10540
3939.49509,0.10512
3937.56680,0.10497
3935.63851,0.10499
3933.71022,0.10513
3931.78193,0.10512
3929.85365,0.10468
3927.92536,0.10420
3925.99707,0.10400
3924.06878,0.10380
3922.14049,0.10353
3920.21220,0.10345
3918.28391,0.10350
3916.35562,0.10338
3914.42733,0.10305
3912.49904,0.10277
3910.57075,0.10261
3908.64246,0.10255
3906.71417,0.10272
3904.78588,0.10306
3902.85759,0.10324
3900.92931,0.10308
3899.00102,0.10260
3897.07273,0.10208
3895.14444,0.10188
3893.21615,0.10191
3891.28786,0.10170
3889.35957,0.10123
3887.43128,0.10119
3885.50299,0.10142
3883.57470,0.10143
3881.64641,0.10138
3879.71812,0.10105
3877.78983,0.10042
3875.86154,0.10024
3873.93325,0.10036
3872.00497,0.10045
3870.07668,0.10042
3868.14839,0.10008
3866.22010,0.09985
3864.29181,0.09986
3862.36352,0.09953
3860.43523,0.09904
3858.50694,0.09894
3856.57865,0.09936
3854.65036,0.10011
3852.72207,0.10005
3850.79378,0.09877
3848.86549,0.09804
3846.93720,0.09782
3845.00891,0.09782
3843.08063,0.09795
3841.15234,0.09824
3839.22405,0.09850
3837.29576,0.09820
3835.36747,0.09755
3833.43918,0.09703
3831.51089,0.09662
3829.58260,0.09641
3827.65431,0.09649
3825.72602,0.09657
3823.79773,0.09669
3821.86944,0.09706
3819.94115,0.09695
3818.01286,0.09636
3816.08458,0.09598
3814.15629,0.09527
3812.22800,0.09469
3810.29971,0.09468
3808.37142,0.09501
3806.44313,0.09511
3804.51484,0.09490
3802.58655,0.09491
3800.65826,0.09472
3798.72997,0.09420
3796.80168,0.09391
3794.87339,0.09349
3792.94510,0.09310
3791.01681,0.09293
3789.08852,0.09281
3787.16024,0.09276
3785.23195,0.09280
3783.30366,0.09275
3781.37537,0.09273
3779.44708,0.09266
3777.51879,0.09218
3775.59050,0.09174
3773.66221,0.09166
3771.73392,0.09179
3769.80563,0.09177
3767.87734,0.09151
3765.94905,0.09132
3764.02076,0.09117
3762.09247,0.09102
3760.16418,0.09096
3758.23590,0.09081
3756.30761,0.09063
3754.37932,0.09076
3752.45103,0.09124
3750.52274,0.09149
3748.59445,0.09085
3746.66616,0.09049
3744.73787,0.09042
3742.80958,0.08973
3740.88129,0.08909
3738.95300,0.08903
3737.02471,0.08931
3735.09642,0.08948
3733.16813,0.08879
3731.23984,0.08763
3729.31156,0.08699
3727.38327,0.08692
3725.45498,0.08709
3723.52669,0.08719
3721.59840,0.08706
3719.67011,0.08674
3717.74182,0.08651
3715.81353,0.08651
3713.88524,0.08680
3711.95695,0.08722
3710.02866,0.08682
3708.10037,0.08574
3706.17208,0.08514
3704.24379,0.08502
3702.31551,0.08501
3700.38722,0.08481
3698.45893,0.08459
3696.53064,0.08449
3694.60235,0.08450
3692.67406,0.08480
3690.74577,0.08551
3688.81748,0.08587
3686.88919,0.08507
3684.96090,0.08429
3683.03261,0.08401
3681.10432,0.08405
3679.17603,0.08430
3677.24774,0.08484
3675.31945,0.08515
3673.39117,0.08451
3671.46288,0.08427
3669.53459,0.08429
3667.60630,0.08355
3665.67801,0.08291
3663.74972,0.08273
3661.82143,0.08271
3659.89314,0.08279
3657.96485,0.08297
3656.03656,0.08301
3654.10827,0.08287
3652.17998,0.08315
3650.25169,0.08398
3648.32340,0.08408
3646.39511,0.08273
3644.46683,0.08182
3642.53854,0.08151
3640.61025,0.08138
3638.68196,0.08119
3636.75367,0.08104
3634.82538,0.08103
3632.89709,0.08116
3630.96880,0.08145
3629.04051,0.08163
3627.11222,0.08079
3625.18393,0.08000
3623.25564,0.07994
3621.32735,0.08032
3619.39906,0.08073
3617.47077,0.08065
3615.54249,0.08046
3613.61420,0.08048
3611.68591,0.08040
3609.75762,0.08023
3607.82933,0.07988
3605.90104,0.07926
3603.97275,0.07890
3602.04446,0.07889
3600.11617,0.07889
3598.18788,0.07886
3596.25959,0.07890
3594.33130,0.07878
3592.40301,0.07846
3590.47472,0.07845
3588.54643,0.07879
3586.61815,0.07873
3584.68986,0.07803
3582.76157,0.07763
3580.83328,0.07758
3578.90499,0.07756
3576.97670,0.07742
3575.04841,0.07724
3573.12012,0.07704
3571.19183,0.07702
3569.26354,0.07737
3567.33525,0.07779
3565.40696,0.07745
3563.47867,0.07670
3561.55038,0.07631
3559.62210,0.07611
3557.69381,0.07595
3555.76552,0.07590
3553.83723,0.07599
3551.90894,0.07591
3549.98065,0.07567
3548.05236,0.07566
3546.12407,0.07576
3544.19578,0.07548
3542.26749,0.07497
3540.33920,0.07462
3538.41091,0.07455
3536.48262,0.07457
3534.55433,0.07444
3532.62604,0.07420
3530.69776,0.07413
3528.76947,0.07421
3526.84118,0.07420
3524.91289,0.07404
3522.98460,0.07382
3521.05631,0.07348
3519.12802,0.07318
3517.19973,0.07301
3515.27144,0.07291
3513.34315,0.07277
3511.41486,0.07260
3509.48657,0.07242
3507.55828,0.07229
3505.62999,0.07230
3503.70170,0.07233
3501.77342,0.07214
3499.84513,0.07184
3497.91684,0.07165
3495.98855,0.07150
3494.06026,0.07130
3492.13197,0.07113
3490.20368,0.07106
3488.27539,0.07099
3486.34710,0.07090
3484.41881,0.07087
3482.49052,0.07084
3480.56223,0.07064
3478.63394,0.07035
3476.70565,0.07014
3474.77736,0.06997
3472.84908,0.06975
3470.92079,0.06958
3468.99250,0.06954
3467.06421,0.06949
3465.13592,0.06933
3463.20763,0.06915
3461.27934,0.06895
3459.35105,0.06871
3457.42276,0.06854
3455.49447,0.06847
3453.56618,0.06840
3451.63789,0.06830
3449.70960,0.06826
3447.78131,0.06825
3445.85302,0.06801
3443.92474,0.06771
3441.99645,0.06758
3440.06816,0.06742
3438.13987,0.06713
3436.21158,0.06692
3434.28329,0.06684
3432.35500,0.06677
3430.42671,0.06664
3428.49842,0.06649
3426.57013,0.06633
3424.64184,0.06620
3422.71355,0.06614
3420.78526,0.06608
3418.85697,0.06591
3416.92869,0.06568
3415.00040,0.06549
3413.07211,0.06538
3411.14382,0.06529
3409.21553,0.06520
3407.28724,0.06518
3405.35895,0.06515
3403.43066,0.06499
3401.50237,0.06477
3399.57408,0.06465
3397.64579,0.06457
3395.71750,0.06442
3393.78921,0.06425
3391.86092,0.06414
3389.93263,0.06403
3388.00435,0.06393
3386.07606,0.06389
3384.14777,0.06386
3382.21948,0.06377
3380.29119,0.06365
3378.36290,0.06350
3376.43461,0.06334
3374.50632,0.06320
3372.57803,0.06311
3370.64974,0.06306
3368.72145,0.06299
3366.79316,0.06287
3364.86487,0.06275
3362.93658,0.06262
3361.00829,0.06250
3359.08001,0.06239
3357.15172,0.06225
3355.22343,0.06208
3353.29514,0.06186
3351.36685,0.06164
3349.43856,0.06153
3347.51027,0.06148
3345.58198,0.06137
3343.65369,0.06119
3341.72540,0.06100
3339.79711,0.06085
3337.86882,0.06068
3335.94053,0.06052
3334.01224,0.06038
3332.08395,0.06027
3330.15567,0.06015
3328.22738,0.05996
3326.29909,0.05972
3324.37080,0.05957
3322.44251,0.05949
3320.51422,0.05937
3318.58593,0.05925
3316.65764,0.05917
3314.72935,0.05898
3312.80106,0.05874
3310.87277,0.05857
3308.94448,0.05846
3307.01619,0.05829
3305.08790,0.05806
3303.15961,0.05782
3301.23133,0.05764
3299.30304,0.05754
3297.37475,0.05747
3295.44646,0.05739
3293.51817,0.05730
3291.58988,0.05716
3289.66159,0.05698
3287.73330,0.05682
3285.80501,0.05668
3283.87672,0.05656
3281.94843,0.05644
3280.02014,0.05633
3278.09185,0.05620
3276.16356,0.05607
3274.23528,0.05593
3272.30699,0.05575
3270.37870,0.05558
3268.45041,0.05548
3266.52212,0.05535
3264.59383,0.05519
3262.66554,0.05506
3260.73725,0.05493
3258.80896,0.05479
3256.88067,0.05467
3254.95238,0.05451
3253.02409,0.05429
3251.09580,0.05408
3249.16751,0.05390
3247.23922,0.05380
3245.31094,0.05372
3243.38265,0.05360
3241.45436,0.05356
3239.52607,0.05361
3237.59778,0.05353
3235.66949,0.05326
3233.74120,0.05304
3231.81291,0.05292
3229.88462,0.05287
3227.95633,0.05281
3226.02804,0.05266
3224.09975,0.05243
3222.17146,0.05226
3220.24317,0.05222
3218.31488,0.05218
3216.38660,0.05206
3214.45831,0.05193
3212.53002,0.05180
3210.60173,0.05159
3208.67344,0.05138
3206.74515,0.05122
3204.81686,0.05111
3202.88857,0.05103
3200.96028,0.05093
3199.03199,0.05079
3197.10370,0.05059
3195.17541,0.05031
3193.24712,0.05005
3191.31883,0.04992
3189.39054,0.04986
3187.46226,0.04974
3185.53397,0.04957
3183.60568,0.04939
3181.67739,0.04922
3179.74910,0.04907
3177.82081,0.04893
3175.89252,0.04872
3173.96423,0.04847
3172.03594,0.04830
3170.10765,0.04819
3168.17936,0.04800
3166.25107,0.04778
3164.32278,0.04760
3162.39449,0.04748
3160.46620,0.04738
3158.53792,0.04725
3156.60963,0.04704
3154.68134,0.04678
3152.75305,0.04653
3150.82476,0.04633
3148.89647,0.04615
3146.96818,0.04596
3145.03989,0.04578
3143.11160,0.04562
3141.18331,0.04542
3139.25502,0.04527
3137.32673,0.04520
3135.39844,0.04506
3133.47015,0.04480
3131.54187,0.04454
3129.61358,0.04430
3127.68529,0.04408
3125.75700,0.04392
3123.82871,0.04383
3121.90042,0.04376
3119.97213,0.04359
3118.04384,0.04336
3116.11555,0.04312
3114.18726,0.04289
3112.25897,0.04271
3110.33068,0.04258
3108.40239,0.04242
3106.47410,0.04226
3104.54581,0.04215
3102.61753,0.04209
3100.68924,0.04197
3098.76095,0.04176
3096.83266,0.04154
3094.90437,0.04139
3092.97608,0.04125
3091.04779,0.04110
3089.11950,0.04095
3087.19121,0.04078
3085.26292,0.04055
3083.33463,0.04041
3081.40634,0.04030
3079.47805,0.04013
3077.54976,0.03996
3075.62147,0.03987
3073.69319,0.03975
3071.76490,0.03962
3069.83661,0.03956
3067.90832,0.03947
3065.98003,0.03930
3064.05174,0.03912
3062.12345,0.03900
3060.19516,0.03887
3058.26687,0.03870
3056.33858,0.03851
3054.41029,0.03835
3052.48200,0.03818
3050.55371,0.03800
3048.62542,0.03781
3046.69713,0.03765
3044.76885,0.03749
3042.84056,0.03731
3040.91227,0.03714
3038.98398,0.03704
3037.05569,0.03696
3035.12740,0.03684
3033.19911,0.03668
3031.27082,0.03657
3029.34253,0.03646
3027.41424,0.03634
3025.48595,0.03621
3023.55766,0.03608
3021.62937,0.03592
3019.70108,0.03574
3017.77279,0.03554
3015.84451,0.03534
3013.91622,0.03513
3011.98793,0.03496
3010.05964,0.03485
3008.13135,0.03480
3006.20306,0.03477
3004.27477,0.03472
3002.34648,0.03461
3000.41819,0.03444
2998.48990,0.03427
2996.56161,0.03413
2994.63332,0.03402
2992.70503,0.03390
2990.77674,0.03380
2988.84846,0.03365
2986.92017,0.03347
2984.99188,0.03334
2983.06359,0.03326
2981.13530,0.03319
2979.20701,0.03312
2977.27872,0.03301
2975.35043,0.03289
2973.42214,0.03277
2971.49385,0.03264
2969.56556,0.03250
2967.63727,0.03239
2965.70898,0.03233
2963.78069,0.03225
2961.85240,0.03209
2959.92412,0.03191
2957.99583,0.03171
2956.06754,0.03153
2954.13925,0.03136
2952.21096,0.03124
2950.28267,0.03119
2948.35438,0.03118
2946.42609,0.03107
2944.49780,0.03091
2942.56951,0.03082
2940.64122,0.03079
2938.71293,0.03069
2936.78464,0.03055
2934.85635,0.03044
2932.92806,0.03037
2930.99978,0.03024
2929.07149,0.03004
2927.14320,0.02985
2925.21491,0.02973
2923.28662,0.02966
2921.35833,0.02957
2919.43004,0.02942
2917.50175,0.02921
2915.57346,0.02898
2913.64517,0.02881
2911.71688,0.02874
2909.78859,0.02869
2907.86030,0.02864
2905.93201,0.02857
2904.00372,0.02842
2902.07544,0.02828
2900.14715,0.02820
2898.21886,0.02812
2896.29057,0.02796
2894.36228,0.02774
2892.43399,0.02756
2890.50570,0.02745
2888.57741,0.02737
2886.64912,0.02730
2884.72083,0.02721
2882.79254,0.02709
2880.86425,0.02698
2878.93596,0.02685
2877.00767,0.02674
2875.07938,0.02666
2873.15110,0.02658
2871.22281,0.02647
2869.29452,0.02633
2867.36623,0.02622
2865.43794,0.02617
2863.50965,0.02612
2861.58136,0.02602
2859.65307,0.02589
2857.72478,0.02573
2855.79649,0.02559
2853.86820,0.02549
2851.93991,0.02541
2850.01162,0.02531
2848.08333,0.02524
2846.15505,0.02521
2844.22676,0.02518
2842.29847,0.02512
2840.37018,0.02497
2838.44189,0.02472
2836.51360,0.02456
2834.58531,0.02452
2832.65702,0.02448
2830.72873,0.02440
2828.80044,0.02434
2826.87215,0.02423
2824.94386,0.02408
2823.01557,0.02395
2821.08728,0.02383
2819.15899,0.02369
2817.23071,0.02357
2815.30242,0.02350
2813.37413,0.02344
2811.44584,0.02335
2809.51755,0.02328
2807.58926,0.02325
2805.66097,0.02316
2803.73268,0.02303
2801.80439,0.02291
2799.87610,0.02281
2797.94781,0.02271
2796.01952,0.02262
2794.09123,0.02253
2792.16294,0.02247
2790.23465,0.02242
2788.30637,0.02237
2786.37808,0.02232
2784.44979,0.02228
2782.52150,0.02220
2780.59321,0.02209
2778.66492,0.02198
2776.73663,0.02190
2774.80834,0.02182
2772.88005,0.02175
2770.95176,0.02167
2769.02347,0.02159
2767.09518,0.02153
2765.16689,0.02148
2763.23860,0.02143
2761.31031,0.02136
2759.38203,0.02130
2757.45374,0.02123
2755.52545,0.02110
2753.59716,0.02099
2751.66887,0.02090
2749.74058,0.02081
2747.81229,0.02072
2745.88400,0.02064
2743.95571,0.02058
2742.02742,0.02055
2740.09913,0.02050
2738.17084,0.02043
2736.24255,0.02035
2734.31426,0.02029
2732.38597,0.02026
2730.45769,0.02021
2728.52940,0.02010
2726.60111,0.02002
2724.67282,0.01997
2722.74453,0.01994
2720.81624,0.01993
2718.88795,0.01992
2716.95966,0.01984
2715.03137,0.01971
2713.10308,0.01959
2711.17479,0.01952
2709.24650,0.01949
2707.31821,0.01946
2705.38992,0.01945
2703.46164,0.01944
2701.53335,0.01941
2699.60506,0.01931
2697.67677,0.01920
2695.74848,0.01911
2693.82019,0.01908
2691.89190,0.01907
2689.96361,0.01904
2688.03532,0.01896
2686.10703,0.01890
2684.17874,0.01886
2682.25045,0.01879
2680.32216,0.01871
2678.39387,0.01869
2676.46558,0.01867
2674.53730,0.01862
2672.60901,0.01855
2670.68072,0.01851
2668.75243,0.01849
2666.82414,0.01849
2664.89585,0.01843
2662.96756,0.01834
2661.03927,0.01830
2659.11098,0.01828
2657.18269,0.01822
2655.25440,0.01813
2653.32611,0.01807
2651.39782,0.01808
2649.46953,0.01811
2647.54124,0.01814
2645.61296,0.01812
2643.68467,0.01803
2641.75638,0.01792
2639.82809,0.01786
2637.89980,0.01787
2635.97151,0.01784
2634.04322,0.01779
2632.11493,0.01779
2630.18664,0.01782
2628.25835,0.01780
2626.33006,0.01774
2624.40177,0.01771
2622.47348,0.01770
2620.54519,0.01770
2618.61690,0.01768
2616.68862,0.01758
2614.76033,0.01750
2612.83204,0.01749
2610.90375,0.01752
2608.97546,0.01753
2607.04717,0.01750
2605.11888,0.01745
2603.19059,0.01743
2601.26230,0.01744
2599.33401,0.01747
2597.40572,0.01748
2595.47743,0.01744
2593.54914,0.01736
2591.62085,0.01731
2589.69256,0.01728
2587.76428,0.01729
2585.83599,0.01726
2583.90770,0.01717
2581.97941,0.01709
2580.05112,0.01707
2578.12283,0.01711
2576.19454,0.01720
2574.26625,0.01724
2572.33796,0.01719
2570.40967,0.01712
2568.48138,0.01709
2566.55309,0.01712
2564.62480,0.01715
2562.69651,0.01717
2560.76823,0.01716
2558.83994,0.01713
2556.91165,0.01709
2554.98336,0.01710
2553.05507,0.01712
2551.12678,0.01712
2549.19849,0.01705
2547.27020,0.01700
2545.34191,0.01704
2543.41362,0.01712
2541.48533,0.01713
2539.55704,0.01713
2537.62875,0.01717
2535.70046,0.01721
2533.77217,0.01719
2531.84389,0.01713
2529.91560,0.01709
2527.98731,0.01709
2526.05902,0.01711
2524.13073,0.01712
2522.20244,0.01711
2520.27415,0.01712
2518.34586,0.01714
2516.41757,0.01716
2514.48928,0.01720
2512.56099,0.01726
2510.63270,0.01728
2508.70441,0.01728
2506.77612,0.01729
2504.84783,0.01730
2502.91955,0.01728
2500.99126,0.01722
2499.06297,0.01719
2497.13468,0.01721
2495.20639,0.01728
2493.27810,0.01734
2491.34981,0.01739
2489.42152,0.01742
2487.49323,0.01741
2485.56494,0.01739
2483.63665,0.01745
2481.70836,0.01755
2479.78007,0.01762
2477.85178,0.01765
2475.92349,0.01764
2473.99521,0.01761
2472.06692,0.01760
2470.13863,0.01761
2468.21034,0.01762
2466.28205,0.01761
2464.35376,0.01761
2462.42547,0.01764
2460.49718,0.01771
2458.56889,0.01775
2456.64060,0.01780
2454.71231,0.01787
2452.78402,0.01791
2450.85573,0.01787
2448.92744,0.01785
2446.99915,0.01789
2445.07087,0.01796
2443.14258,0.01800
2441.21429,0.01803
2439.28600,0.01809
2437.35771,0.01818
2435.42942,0.01821
2433.50113,0.01819
2431.57284,0.01818
2429.64455,0.01822
2427.71626,0.01828
2425.78797,0.01833
2423.85968,0.01839
2421.93139,0.01843
2420.00310,0.01845
2418.07482,0.01847
2416.14653,0.01849
2414.21824,0.01849
2412.28995,0.01852
2410.36166,0.01862
2408.43337,0.01872
2406.50508,0.01875
2404.57679,0.01876
2402.64850,0.01879
2400.72021,0.01883
2398.79192,0.01885
2396.86363,0.01887
2394.93534,0.01893
2393.00705,0.01905
2391.07876,0.01911
2389.15048,0.01907
2387.22219,0.01891
2385.29390,0.01857
2383.36561,0.01793
2381.43732,0.01695
2379.50903,0.01564
2377.58074,0.01419
2375.65245,0.01272
2373.72416,0.01107
2371.79587,0.00911
2369.86758,0.00705
2367.93929,0.00509
2366.01100,0.00326
2364.08271,0.00163
2362.15442,0.00045
2360.22614,0.00000
2358.29785,0.00012
2356.36956,0.00096
2354.44127,0.00258
2352.51298,0.00485
2350.58469,0.00705
2348.65640,0.00821
2346.72811,0.00765
2344.79982,0.00574
2342.87153,0.00405
2340.94324,0.00344
2339.01495,0.00336
2337.08666,0.00356
2335.15837,0.00390
2333.23008,0.00415
2331.30180,0.00427
2329.37351,0.00449
2327.44522,0.00497
2325.51693,0.00551
2323.58864,0.00592
2321.66035,0.00642
2319.73206,0.00728
2317.80377,0.00834
2315.87548,0.00917
2313.94719,0.00966
2312.01890,0.00999
2310.09061,0.01034
2308.16232,0.01072
2306.23403,0.01122
2304.30574,0.01174
2302.37746,0.01212
2300.44917,0.01237
2298.52088,0.01259
2296.59259,0.01278
2294.66430,0.01295
2292.73601,0.01309
2290.80772,0.01322
2288.87943,0.01333
2286.95114,0.01340
2285.02285,0.01344
2283.09456,0.01340
2281.16627,0.01323
2279.23798,0.01301
2277.30969,0.01290
2275.38141,0.01284
2273.45312,0.01276
2271.52483,0.01263
2269.59654,0.01251
2267.66825,0.01240
2265.73996,0.01228
2263.81167,0.01216
2261.88338,0.01206
2259.95509,0.01197
2258.02680,0.01188
2256.09851,0.01184
2254.17022,0.01181
2252.24193,0.01175
2250.31364,0.01166
2248.38535,0.01156
2246.45707,0.01147
2244.52878,0.01141
2242.60049,0.01135
2240.67220,0.01126
2238.74391,0.01115
2236.81562,0.01103
2234.88733,0.01099
2232.95904,0.01098
2231.03075,0.01095
2229.10246,0.01088
2227.17417,0.01079
2225.24588,0.01071
2223.31759,0.01068
2221.38930,0.01065
2219.46101,0.01055
2217.53273,0.01041
2215.60444,0.01033
2213.67615,0.01032
2211.74786,0.01034
2209.81957,0.01037
2207.89128,0.01039
2205.96299,0.01038
2204.03470,0.01037
2202.10641,0.01042
2200.17812,0.01054
2198.24983,0.01060
2196.32154,0.01061
2194.39325,0.01061
2192.46496,0.01069
2190.53667,0.01083
2188.60839,0.01098
2186.68010,0.01112
2184.75181,0.01126
2182.82352,0.01138
2180.89523,0.01150
2178.96694,0.01162
2177.03865,0.01176
2175.11036,0.01195
2173.18207,0.01218
2171.25378,0.01239
2169.32549,0.01253
2167.39720,0.01264
2165.46891,0.01275
2163.54062,0.01284
2161.61234,0.01287
2159.68405,0.01289
2157.75576,0.01292
2155.82747,0.01295
2153.89918,0.01293
2151.97089,0.01286
2150.04260,0.01275
2148.11431,0.01259
2146.18602,0.01241
2144.25773,0.01218
2142.32944,0.01194
2140.40115,0.01171
2138.47286,0.01145
2136.54457,0.01113
2134.61628,0.01084
2132.68800,0.01057
2130.75971,0.01029
2128.83142,0.00999
2126.90313,0.00970
2124.97484,0.00945
2123.04655,0.00924
2121.11826,0.00905
2119.18997,0.00882
2117.26168,0.00861
2115.33339,0.00843
2113.40510,0.00827
2111.47681,0.00809
2109.54852,0.00791
2107.62023,0.00777
2105.69194,0.00761
2103.76366,0.00745
2101.83537,0.00731
2099.90708,0.00722
2097.97879,0.00713
2096.05050,0.00705
2094.12221,0.00696
2092.19392,0.00688
2090.26563,0.00677
2088.33734,0.00660
2086.40905,0.00641
2084.48076,0.00624
2082.55247,0.00610
2080.62418,0.00595
2078.69589,0.00577
2076.76760,0.00558
2074.83932,0.00545
2072.91103,0.00533
2070.98274,0.00520
2069.05445,0.00502
2067.12616,0.00486
2065.19787,0.00475
2063.26958,0.00461
2061.34129,0.00444
2059.41300,0.00424
2057.48471,0.00404
2055.55642,0.00385
2053.62813,0.00372
2051.69984,0.00362
2049.77155,0.00350
2047.84326,0.00335
2045.91498,0.00320
2043.98669,0.00308
2042.05840,0.00304
2040.13011,0.00295
2038.20182,0.00279
2036.27353,0.00266
2034.34524,0.00254
2032.41695,0.00243
2030.48866,0.00234
2028.56037,0.00225
2026.63208,0.00217
2024.70379,0.00209
2022.77550,0.00203
2020.84721,0.00201
2018.91893,0.00198
2016.99064,0.00197
2015.06235,0.00194
2013.13406,0.00188
2011.20577,0.00177
2009.27748,0.00168
2007.34919,0.00163
2005.42090,0.00157
2003.49261,0.00151
2001.56432,0.00141
1999.63603,0.00131
1997.70774,0.00120
1995.77945,0.00114
1993.85116,0.00116
1991.92287,0.00116
1989.99459,0.00110
1988.06630,0.00106
1986.13801,0.00098
1984.20972,0.00088
1982.28143,0.00083
1980.35314,0.00079
1978.42485,0.00076
1976.49656,0.00073
1974.56827,0.00070
1972.63998,0.00065
1970.71169,0.00063
1968.78340,0.00070
1966.85511,0.00074
1964.92682,0.00064
1962.99853,0.00051
1961.07025,0.00047
1959.14196,0.00046
1957.21367,0.00050
1955.28538,0.00050
1953.35709,0.00045
1951.42880,0.00038
1949.50051,0.00036
1947.57222,0.00038
1945.64393,0.00044
1943.71564,0.00046
1941.78735,0.00036
1939.85906,0.00023
1937.93077,0.00020
1936.00248,0.00021
1934.07419,0.00015
1932.14591,0.00006
1930.21762,0.00003
1928.28933,0.00007
1926.36104,0.00015
1924.43275,0.00031
1922.50446,0.00036
1920.57617,0.00029
1918.64788,0.00028
1916.71959,0.00022
1914.79130,0.00011
1912.86301,0.00010
1910.93472,0.00017
1909.00643,0.00019
1907.07814,0.00013
1905.14985,0.00006
1903.22157,0.00002
1901.29328,-0.00002
1899.36499,-0.00004
1897.43670,0.00003
1895.50841,0.00009
1893.58012,0.00010
1891.65183,0.00018
1889.72354,0.00025
1887.79525,0.00012
1885.86696,0.00002
1883.93867,0.00000
1882.01038,-0.00003
1880.08209,-0.00008
1878.15380,-0.00015
1876.22552,-0.00022
1874.29723,-0.00020
1872.36894,-0.00006
1870.44065,0.00018
1868.51236,0.00028
1866.58407,0.00005
1864.65578,-0.00017
1862.72749,-0.00027
1860.79920,-0.00028
1858.87091,-0.00028
1856.94262,-0.00030
1855.01433,-0.00033
1853.08604,-0.00034
1851.15775,-0.00025
1849.22946,-0.00007
1847.30118,0.00013
1845.37289,0.00022
1843.44460,0.00000
1841.51631,-0.00021
1839.58802,-0.00020
1837.65973,-0.00011
1835.73144,-0.00013
1833.80315,-0.00011
1831.87486,0.00010
1829.94657,0.00025
1828.01828,0.00012
1826.08999,-0.00004
1824.16170,-0.00016
1822.23341,-0.00029
1820.30512,-0.00029
1818.37684,-0.00024
1816.44855,-0.00024
1814.52026,-0.00016
1812.59197,0.00000
1810.66368,0.00006
1808.73539,-0.00010
1806.80710,-0.00019
1804.87881,-0.00012
1802.95052,0.00004
1801.02223,0.00015
1799.09394,0.00011
1797.16565,0.00010
1795.23736,0.00027
1793.30907,0.00049
1791.38078,0.00037
1789.45250,0.00001
1787.52421,-0.00010
1785.59592,-0.00006
1783.66763,0.00000
1781.73934,0.00005
1779.81105,0.00005
1777.88276,0.00005
1775.95447,0.00024
1774.02618,0.00059
1772.09789,0.00067
1770.16960,0.00032
1768.24131,0.00004
1766.31302,-0.00007
1764.38473,0.00000
1762.45644,0.00016
1760.52816,0.00011
1758.59987,-0.00002
1756.67158,-0.00011
1754.74329,-0.00018
1752.81500,-0.00003
1750.88671,0.00034
1748.95842,0.00050
1747.03013,0.00031
1745.10184,0.00013
1743.17355,0.00010
1741.24526,0.00017
1739.31697,0.00020
1737.38868,0.00025
1735.46039,0.00051
1733.53211,0.00054
1731.60382,-0.00003
1729.67553,-0.00046
1727.74724,-0.00060
1725.81895,-0.00052
1723.89066,-0.00039
1721.96237,-0.00022
1720.03408,0.00017
1718.10579,0.00073
1716.17750,0.00075
1714.24921,0.00012
1712.32092,-0.00030
1710.39263,-0.00035
1708.46434,-0.00015
1706.53605,0.00011
1704.60777,0.00019
1702.67948,0.00043
1700.75119,0.00095
1698.82290,0.00112
1696.89461,0.00060
1694.96632,-0.00011
1693.03803,-0.00041
1691.10974,-0.00025
1689.18145,0.00009
1687.25316,0.00048
1685.32487,0.00090
1683.39658,0.00088
1681.46829,0.00043
1679.54000,0.00021
1677.61171,0.00031
1675.68343,0.00060
1673.75514,0.00079
1671.82685,0.00100
1669.89856,0.00112
1667.97027,0.00058
1666.04198,0.00022
1664.11369,0.00026
1662.18540,0.00022
1660.25711,0.00006
1658.32882,0.00021
1656.40053,0.00076
1654.47224,0.00157
1652.54395,0.00161
1650.61566,0.00111
1648.68737,0.00134
1646.75909,0.00133
1644.83080,0.00059
1642.90251,0.00032
1640.97422,0.00051
1639.04593,0.00096
1637.11764,0.00152
1635.18935,0.00135
1633.26106,0.00062
1631.33277,0.00046
1629.40448,0.00060
1627.47619,0.00075
1625.54790,0.00089
1623.61961,0.00090
1621.69132,0.00069
1619.76303,0.00068
1617.83475,0.00092
1615.90646,0.00078
1613.97817,0.00040
1612.04988,0.00035
1610.12159,0.00045
1608.19330,0.00050
1606.26501,0.00046
1604.33672,0.00041
1602.40843,0.00034
1600.48014,0.00031
1598.55185,0.00036
1596.62356,0.00039
1594.69527,0.00035
1592.76698,0.00035
1590.83870,0.00036
1588.91041,0.00035
1586.98212,0.00038
1585.05383,0.00048
1583.12554,0.00057
1581.19725,0.00066
1579.26896,0.00092
1577.34067,0.00132
1575.41238,0.00123
1573.48409,0.00092
1571.55580,0.00102
1569.62751,0.00117
1567.69922,0.00108
1565.77093,0.00104
1563.84264,0.00124
1561.91436,0.00178
1559.98607,0.00265
1558.05778,0.00271
1556.12949,0.00201
1554.20120,0.00176
1552.27291,0.00159
1550.34462,0.00141
1548.41633,0.00138
1546.48804,0.00174
1544.55975,0.00253
1542.63146,0.00341
1540.70317,0.00360
1538.77488,0.00233
1536.84659,0.00173
1534.91830,0.00183
1532.99002,0.00181
1531.06173,0.00164
1529.13344,0.00181
1527.20515,0.00220
1525.27686,0.00250
1523.34857,0.00276
1521.42028,0.00280
1519.49199,0.00258
1517.56370,0.00247
1515.63541,0.00225
1513.70712,0.00203
1511.77883,0.00221
1509.85054,0.00279
1507.92225,0.00330
1505.99396,0.00227
1504.06568,0.00138
1502.13739,0.00142
1500.20910,0.00170
1498.28081,0.00182
1496.35252,0.00160
1494.42423,0.00146
1492.49594,0.00173
1490.56765,0.00216
1488.63936,0.00210
1486.71107,0.00157
1484.78278,0.00129
1482.85449,0.00130
1480.92620,0.00137
1478.99791,0.00145
1477.06962,0.00167
1475.14134,0.00204
1473.21305,0.00224
1471.28476,0.00183
1469.35647,0.00143
1467.42818,0.00141
1465.49989,0.00155
1463.57160,0.00156
1461.64331,0.00164
1459.71502,0.00204
1457.78673,0.00244
1455.85844,0.00199
1453.93015,0.00155
1452.00186,0.00150
1450.07357,0.00157
1448.14529,0.00153
1446.21700,0.00135
1444.28871,0.00126
1442.36042,0.00133
1440.43213,0.00145
1438.50384,0.00160
1436.57555,0.00168
1434.64726,0.00165
1432.71897,0.00173
1430.79068,0.00188
1428.86239,0.00191
1426.93410,0.00190
1425.00581,0.00200
1423.07752,0.00214
1421.14923,0.00222
1419.22095,0.00225
1417.29266,0.00209
1415.36437,0.00200
1413.43608,0.00211
1411.50779,0.00223
1409.57950,0.00226
1407.65121,0.00229
1405.72292,0.00238
1403.79463,0.00238
1401.86634,0.00236
1399.93805,0.00245
1398.00976,0.00252
1396.08147,0.00244
1394.15318,0.00217
1392.22489,0.00190
1390.29661,0.00189
1388.36832,0.00198
1386.44003,0.00183
1384.51174,0.00153
1382.58345,0.00141
1380.65516,0.00140
1378.72687,0.00144
1376.79858,0.00150
1374.87029,0.00156
1372.94200,0.00154
1371.01371,0.00148
1369.08542,0.00147
1367.15713,0.00155
1365.22884,0.00180
1363.30055,0.00216
1361.37227,0.00235
1359.44398,0.00241
1357.51569,0.00264
1355.58740,0.00304
1353.65911,0.00347
1351.73082,0.00389
1349.80253,0.00439
1347.87424,0.00488
1345.94595,0.00526
1344.01766,0.00561
1342.08937,0.00605
1340.16108,0.00647
1338.23279,0.00663
1336.30450,0.00655
1334.37621,0.00641
1332.44793,0.00625
1330.51964,0.00607
1328.59135,0.00586
1326.66306,0.00566
1324.73477,0.00542
1322.80648,0.00514
1320.87819,0.00484
1318.94990,0.00446
1317.02161,0.00397
1315.09332,0.00347
1313.16503,0.00303
1311.23674,0.00267
1309.30845,0.00242
1307.38016,0.00217
1305.45188,0.00187
1303.52359,0.00160
1301.59530,0.00138
1299.66701,0.00120
1297.73872,0.00110
1295.81043,0.00100
1293.88214,0.00084
1291.95385,0.00061
1290.02556,0.00040
1288.09727,0.00024
1286.16898,0.00012
1284.24069,0.00005
1282.31240,0.00000
1280.38411,-0.00014
1278.45582,-0.00029
1276.52754,-0.00038
1274.59925,-0.00036
1272.67096,-0.00032
1270.74267,-0.00030
1268.81438,-0.00033
1266.88609,-0.00034
1264.95780,-0.00032
1263.02951,-0.00024
1261.10122,-0.00013
1259.17293,-0.00003
1257.24464,0.00002
1255.31635,0.00004
1253.38806,0.00002
1251.45977,0.00003
1249.53148,0.00002
1247.60320,-0.00001
1245.67491,-0.00007
1243.74662,-0.00012
1241.81833,-0.00015
1239.89004,-0.00015
1237.96175,-0.00008
1236.03346,-0.00000
1234.10517,0.00001
1232.17688,-0.00003
1230.24859,-0.00010
1228.32030,-0.00017
1226.39201,-0.00024
1224.46372,-0.00032
1222.53543,-0.00039
1220.60714,-0.00046
1218.67886,-0.00056
1216.75057,-0.00070
1214.82228,-0.00079
1212.89399,-0.00080
1210.96570,-0.00077
1209.03741,-0.00075
1207.10912,-0.00075
1205.18083,-0.00075
1203.25254,-0.00070
1201.32425,-0.00069
1199.39596,-0.00071
1197.46767,-0.00070
1195.53938,-0.00059
1193.61109,-0.00043
1191.68280,-0.00032
1189.75452,-0.00029
1187.82623,-0.00026
1185.89794,-0.00022
1183.96965,-0.00011
1182.04136,0.00000
1180.11307,0.00002
1178.18478,0.00003
1176.25649,0.00002
1174.32820,-0.00002
1172.39991,-0.00012
1170.47162,-0.00023
1168.54333,-0.00031
1166.61504,-0.00038
1164.68675,-0.00050
1162.75847,-0.00061
1160.83018,-0.00069
1158.90189,-0.00082
1156.97360,-0.00101
1155.04531,-0.00120
1153.11702,-0.00127
1151.18873,-0.00123
1149.26044,-0.00126
1147.33215,-0.00136
1145.40386,-0.00139
1143.47557,-0.00133
1141.54728,-0.00129
1139.61899,-0.00126
1137.69070,-0.00119
1135.76241,-0.00112
1133.83413,-0.00102
1131.90584,-0.00092
1129.97755,-0.00077
1128.04926,-0.00056
1126.12097,-0.00026
1124.19268,0.00012
1122.26439,0.00049
1120.33610,0.00078
1118.40781,0.00111
1116.47952,0.00144
1114.55123,0.00169
1112.62294,0.00185
1110.69465,0.00200
1108.76636,0.00213
1106.83807,0.00219
1104.90979,0.00215
1102.98150,0.00201
1101.05321,0.00187
1099.12492,0.00181
1097.19663,0.00169
1095.26834,0.00145
1093.34005,0.00120
1091.41176,0.00098
1089.48347,0.00074
1087.55518,0.00051
1085.62689,0.00029
1083.69860,0.00010
1081.77031,0.00000
1079.84202,-0.00017
1077.91373,-0.00038
1075.98545,-0.00062
1074.05716,-0.00081
1072.12887,-0.00096
1070.20058,-0.00107
1068.27229,-0.00122
1066.34400,-0.00142
1064.41571,-0.00161
1062.48742,-0.00174
1060.55913,-0.00182
1058.63084,-0.00190
1056.70255,-0.00201
1054.77426,-0.00216
1052.84597,-0.00229
1050.91768,-0.00236
1048.98939,-0.00236
1047.06111,-0.00233
1045.13282,-0.00226
1043.20453,-0.00215
1041.27624,-0.00215
1039.34795,-0.00227
1037.41966,-0.00241
1035.49137,-0.00248
1033.56308,-0.00245
1031.63479,-0.00237
1029.70650,-0.00236
1027.77821,-0.00235
1025.84992,-0.00234
1023.92163,-0.00233
1021.99334,-0.00231
1020.06506,-0.00221
1018.13677,-0.00207
1016.20848,-0.00202
1014.28019,-0.00200
1012.35190,-0.00189
1010.42361,-0.00173
1008.49532,-0.00168
1006.56703,-0.00168
1004.63874,-0.00161
1002.71045,-0.00148
1000.78216,-0.00137
998.85387,-0.00131
996.92558,-0.00125
994.99729,-0.00115
993.06900,-0.00099
991.14072,-0.00082
989.21243,-0.00073
987.28414,-0.00066
985.35585,-0.00051
983.42756,-0.00024
981.49927,0.00000
979.57098,-0.00004
977.64269,-0.00010
975.71440,-0.00006
973.78611,-0.00000
971.85782,0.00002
969.92953,-0.00001
968.00124,-0.00005
966.07295,-0.00004
964.14466,0.00008
962.21638,0.00023
960.28809,0.00038
958.35980,0.00056
956.43151,0.00074
954.50322,0.00094
952.57493,0.00120
950.64664,0.00151
948.71835,0.00182
946.79006,0.00214
944.86177,0.00250
942.93348,0.00289
941.00519,0.00331
939.07690,0.00385
937.14861,0.00445
935.22032,0.00508
933.29204,0.00576
931.36375,0.00656
929.43546,0.00760
927.50717,0.00895
925.57888,0.01058
923.65059,0.01252
921.72230,0.01482
919.79401,0.01752
917.86572,0.02063
915.93743,0.02410
914.00914,0.02773
912.08085,0.03117
910.15256,0.03397
908.22427,0.03584
906.29598,0.03681
904.36770,0.03711
902.43941,0.03687
900.51112,0.03624
898.58283,0.03558
896.65454,0.03508
894.72625,0.03477
892.79796,0.03444
890.86967,0.03393
888.94138,0.03323
887.01309,0.03234
885.08480,0.03121
883.15651,0.02987
881.22822,0.02843
879.29993,0.02703
877.37165,0.02578
875.44336,0.02472
873.51507,0.02388
871.58678,0.02332
869.65849,0.02297
867.73020,0.02273
865.80191,0.02264
863.87362,0.02274
861.94533,0.02294
860.01704,0.02316
858.08875,0.02346
856.16046,0.02393
854.23217,0.02454
852.30388,0.02519
850.37559,0.02590
848.44731,0.02675
846.51902,0.02771
844.59073,0.02870
842.66244,0.02974
840.73415,0.03082
838.80586,0.03192
836.87757,0.03306
834.94928,0.03424
833.02099,0.03553
831.09270,0.03688
829.16441,0.03828
827.23612,0.03981
825.30783,0.04142
823.37954,0.04301
821.45125,0.04465
819.52297,0.04640
817.59468,0.04818
815.66639,0.05006
813.73810,0.05210
811.80981,0.05416
809.88152,0.05620
807.95323,0.05828
806.02494,0.06044
804.09665,0.06261
802.16836,0.06495
800.24007,0.06749
798.31178,0.07011
796.38349,0.07284
794.45520,0.07569
792.52691,0.07874
790.59863,0.08199
788.67034,0.08542
786.74205,0.08894
784.81376,0.09249
782.88547,0.09624
780.95718,0.10033
779.02889,0.10470
777.10060,0.10913
775.17231,0.11369
773.24402,0.11852
771.31573,0.12361
769.38744,0.12892
767.45915,0.13447
765.53086,0.14031
763.60257,0.14641
761.67429,0.15276
759.74600,0.15934
757.81771,0.16625
755.88942,0.17358
753.96113,0.18125
752.03284,0.18927
750.10455,0.19766
748.17626,0.20653
746.24797,0.21585
744.31968,0.22548
742.39139,0.23542
740.46310,0.24575
738.53481,0.25661
736.60652,0.26789
734.67824,0.27948
732.74995,0.29152
730.82166,0.30417
728.89337,0.31724
726.96508,0.33063
725.03679,0.34458
723.10850,0.35931
721.18021,0.37571
719.25192,0.39453
717.32363,0.41540
715.39534,0.43807
713.46705,0.46281
711.53876,0.48956
709.61047,0.51810
707.68218,0.54851
705.75390,0.58080
703.82561,0.61478
701.89732,0.64967
699.96903,0.68498
698.04074,0.72118
696.11245,0.75922
694.18416,0.80007
692.25587,0.84390
690.32758,0.89101
688.39929,0.94134
686.47100,0.99312
684.54271,1.04484
682.61442,1.09691
680.68613,1.14914
678.75784,1.19954
676.82956,1.24351
674.90127,1.27295
672.97298,1.27891
671.04469,1.25821
669.11640,1.18872
667.18811,1.06712
665.25982,0.97149
663.33153,0.89893
661.40324,0.83317
659.47495,0.78195
657.54666,0.74747
655.61837,0.72504
653.69008,0.70826
651.76179,0.69246
649.83350,0.67697
647.90522,0.66352
645.97693,0.65321
644.04864,0.64561
642.12035,0.64059
640.19206,0.63779
638.26377,0.63664
636.33548,0.63633
634.40719,0.63656
632.47890,0.63720
630.55061,0.63803
628.62232,0.63882
626.69403,0.63907
624.76574,0.63864
622.83745,0.63694
620.90916,0.63315
618.98088,0.62667
617.05259,0.61739
615.12430,0.60504
613.19601,0.58817
611.26772,0.56592
609.33943,0.53904
607.41114,0.51015
605.48285,0.48037
603.55456,0.44957
601.62627,0.41719
599.69798,0.38329
597.76969,0.35065
595.84140,0.32035
593.91311,0.29211
591.98483,0.26483
590.05654,0.23892
588.12825,0.21605
586.19996,0.19445
584.27167,0.17374
582.34338,0.15558
580.41509,0.13942
578.48680,0.12305
576.55851,0.10711
574.63022,0.09306
572.70193,0.08108
570.77364,0.07170
568.84535,0.06353
566.91706,0.05591
564.98877,0.04860
563.06049,0.04148
561.13220,0.03429
559.20391,0.02727
557.27562,0.02172
555.34733,0.01657
553.41904,0.01163
551.49075,0.00615
549.56246,0.00000
